##NAMES=Spinel
##RRUFFID=R070013
##IDEAL CHEMISTRY=MgAl_2_O_4_
##LOCALITY=Bo Phloi, Kanchoutabori Province, Thailand
##OWNER=RRUFF
##SOURCE=Michael Scott
##DESCRIPTION=Black glassy fragment with conchoidal fracture
##DIFFRACTION SAMPLE DESCRIPTION=Powder
##STATUS=The identification of this mineral has been made only by X-ray diffraction.
##URL=rruff.info/R070013
##MEASURED CHEMISTRY=(Mg_0.69_Fe^2+^_0.31_)_Σ=1_(Al_1.90_Fe^3+^_0.10_)_Σ=2_O_4_ ; trace of Mn, Ti and Cr
##CELL PARAMETERS=a: 8.1297(1) b: 8.1297(1) c: 8.1297(1) alpha: 90 beta: 90 gamma: 90 volume: 537.31(2) crystal system: cubic
5, 114
5.01, 121
5.02, 115
5.03, 102
5.04, 107
5.05, 110
5.06, 112
5.07, 100
5.08, 129
5.09, 98
5.1, 108
5.11, 115
5.12, 111
5.13, 103
5.14, 94
5.15, 112
5.16, 107
5.17, 118
5.18, 112
5.19, 117
5.2, 93
5.21, 104
5.22, 115
5.23, 115
5.24, 118
5.25, 123
5.26, 104
5.27, 96
5.28, 105
5.29, 105
5.3, 103
5.31, 101
5.32, 112
5.33, 104
5.34, 112
5.35, 117
5.36, 110
5.37, 111
5.38, 98
5.39, 100
5.4, 130
5.41, 127
5.42, 121
5.43, 110
5.44, 93
5.45, 123
5.46, 107
5.47, 98
5.48, 97
5.49, 114
5.5, 108
5.51, 98
5.52, 115
5.53, 114
5.54, 99
5.55, 116
5.56, 117
5.57, 109
5.58, 133
5.59, 113
5.6, 117
5.61, 119
5.62, 114
5.63, 112
5.64, 110
5.65, 118
5.66, 98
5.67, 93
5.68, 121
5.69, 107
5.7, 98
5.71, 113
5.72, 109
5.73, 113
5.74, 103
5.75, 115
5.76, 99
5.77, 105
5.78, 104
5.79, 115
5.8, 123
5.81, 117
5.82, 119
5.83, 113
5.84, 108
5.85, 103
5.86, 106
5.87, 107
5.88, 134
5.89, 89
5.9, 113
5.91, 98
5.92, 127
5.93, 111
5.94, 117
5.95, 110
5.96, 96
5.97, 118
5.98, 110
5.99, 115
6, 106
6.01, 104
6.02, 105
6.03, 115
6.04, 99
6.05, 103
6.06, 119
6.07, 117
6.08, 111
6.09, 109
6.1, 106
6.11, 123
6.12, 110
6.13, 101
6.14, 122
6.15, 103
6.16, 101
6.17, 118
6.18, 114
6.19, 107
6.2, 108
6.21, 109
6.22, 120
6.23, 101
6.24, 107
6.25, 103
6.26, 107
6.27, 122
6.28, 123
6.29, 125
6.3, 108
6.31, 108
6.32, 109
6.33, 112
6.34, 90
6.35, 117
6.36, 111
6.37, 127
6.38, 102
6.39, 124
6.4, 110
6.41, 122
6.42, 109
6.43, 103
6.44, 110
6.45, 120
6.46, 106
6.47, 126
6.48, 120
6.49, 108
6.5, 129
6.51, 103
6.52, 133
6.53, 121
6.54, 131
6.55, 115
6.56, 120
6.57, 118
6.58, 129
6.59, 135
6.6, 100
6.61, 110
6.62, 111
6.63, 117
6.64, 131
6.65, 104
6.66, 101
6.67, 100
6.68, 114
6.69, 113
6.7, 138
6.71, 103
6.72, 115
6.73, 99
6.74, 114
6.75, 110
6.76, 124
6.77, 119
6.78, 123
6.79, 126
6.8, 116
6.81, 108
6.82, 106
6.83, 114
6.84, 113
6.85, 122
6.86, 98
6.87, 98
6.88, 108
6.89, 115
6.9, 131
6.91, 123
6.92, 104
6.93, 108
6.94, 132
6.95, 130
6.96, 124
6.97, 114
6.98, 137
6.99, 107
7, 119
7.01, 109
7.02, 127
7.03, 121
7.04, 96
7.05, 118
7.06, 110
7.07, 116
7.08, 131
7.09, 118
7.1, 109
7.11, 116
7.12, 108
7.13, 117
7.14, 114
7.15, 112
7.16, 119
7.17, 121
7.18, 123
7.19, 122
7.2, 123
7.21, 107
7.22, 127
7.23, 97
7.24, 108
7.25, 119
7.26, 118
7.27, 122
7.28, 119
7.29, 132
7.3, 113
7.31, 118
7.32, 124
7.33, 115
7.34, 104
7.35, 99
7.36, 111
7.37, 99
7.38, 113
7.39, 104
7.4, 104
7.41, 130
7.42, 109
7.43, 121
7.44, 129
7.45, 115
7.46, 123
7.47, 111
7.48, 108
7.49, 108
7.5, 122
7.51, 109
7.52, 100
7.53, 101
7.54, 137
7.55, 114
7.56, 101
7.57, 114
7.58, 119
7.59, 110
7.6, 116
7.61, 122
7.62, 121
7.63, 117
7.64, 138
7.65, 106
7.66, 118
7.67, 125
7.68, 137
7.69, 97
7.7, 117
7.71, 122
7.72, 97
7.73, 125
7.74, 116
7.75, 135
7.76, 117
7.77, 111
7.78, 133
7.79, 110
7.8, 129
7.81, 104
7.82, 115
7.83, 101
7.84, 116
7.85, 114
7.86, 116
7.87, 140
7.88, 113
7.89, 130
7.9, 107
7.91, 133
7.92, 112
7.93, 122
7.94, 134
7.95, 120
7.96, 106
7.97, 119
7.98, 120
7.99, 116
8, 107
8.01, 118
8.02, 130
8.03, 127
8.04, 151
8.05, 125
8.06, 116
8.07, 111
8.08, 108
8.09, 108
8.1, 96
8.11, 119
8.12, 114
8.13, 120
8.14, 118
8.15, 136
8.16, 129
8.17, 128
8.18, 114
8.19, 121
8.2, 125
8.21, 117
8.22, 123
8.23, 113
8.24, 137
8.25, 108
8.26, 116
8.27, 131
8.28, 114
8.29, 111
8.3, 117
8.31, 112
8.32, 129
8.33, 124
8.34, 119
8.35, 116
8.36, 128
8.37, 95
8.38, 123
8.39, 105
8.4, 118
8.41, 108
8.42, 120
8.43, 127
8.44, 107
8.45, 106
8.46, 126
8.47, 126
8.48, 129
8.49, 112
8.5, 117
8.51, 112
8.52, 115
8.53, 127
8.54, 132
8.55, 116
8.56, 141
8.57, 120
8.58, 131
8.59, 125
8.6, 118
8.61, 116
8.62, 124
8.63, 109
8.64, 111
8.65, 113
8.66, 131
8.67, 114
8.68, 133
8.69, 114
8.7, 118
8.71, 134
8.72, 125
8.73, 120
8.74, 101
8.75, 125
8.76, 123
8.77, 122
8.78, 101
8.79, 123
8.8, 99
8.81, 106
8.82, 115
8.83, 119
8.84, 114
8.85, 119
8.86, 106
8.87, 109
8.88, 126
8.89, 117
8.9, 112
8.91, 117
8.92, 117
8.93, 92
8.94, 129
8.95, 121
8.96, 120
8.97, 138
8.98, 103
8.99, 112
9, 110
9.01, 105
9.02, 129
9.03, 117
9.04, 116
9.05, 134
9.06, 112
9.07, 116
9.08, 98
9.09, 116
9.1, 108
9.11, 109
9.12, 126
9.13, 123
9.14, 109
9.15, 127
9.16, 99
9.17, 113
9.18, 119
9.19, 103
9.2, 126
9.21, 108
9.22, 115
9.23, 130
9.24, 107
9.25, 98
9.26, 115
9.27, 99
9.28, 112
9.29, 109
9.3, 124
9.31, 111
9.32, 106
9.33, 110
9.34, 100
9.35, 102
9.36, 130
9.37, 105
9.38, 109
9.39, 120
9.4, 128
9.41, 132
9.42, 122
9.43, 116
9.44, 123
9.45, 106
9.46, 111
9.47, 112
9.48, 122
9.49, 112
9.5, 142
9.51, 122
9.52, 109
9.53, 106
9.54, 116
9.55, 120
9.56, 126
9.57, 105
9.58, 107
9.59, 125
9.6, 105
9.61, 119
9.62, 124
9.63, 117
9.64, 131
9.65, 110
9.66, 107
9.67, 104
9.68, 107
9.69, 127
9.7, 109
9.71, 114
9.72, 137
9.73, 119
9.74, 121
9.75, 117
9.76, 124
9.77, 108
9.78, 96
9.79, 105
9.8, 117
9.81, 114
9.82, 102
9.83, 105
9.84, 119
9.85, 105
9.86, 100
9.87, 113
9.88, 110
9.89, 115
9.9, 108
9.91, 114
9.92, 111
9.93, 127
9.94, 121
9.95, 106
9.96, 121
9.97, 99
9.98, 104
9.99, 114
10, 122
10.01, 109
10.02, 116
10.03, 96
10.04, 111
10.05, 116
10.06, 98
10.07, 125
10.08, 116
10.09, 139
10.1, 111
10.11, 128
10.12, 111
10.13, 126
10.14, 119
10.15, 105
10.16, 103
10.17, 118
10.18, 112
10.19, 112
10.2, 122
10.21, 107
10.22, 119
10.23, 109
10.24, 118
10.25, 127
10.26, 105
10.27, 108
10.28, 114
10.29, 109
10.3, 131
10.31, 102
10.32, 113
10.33, 106
10.34, 123
10.35, 119
10.36, 115
10.37, 112
10.38, 104
10.39, 122
10.4, 114
10.41, 119
10.42, 126
10.43, 117
10.44, 119
10.45, 137
10.46, 133
10.47, 123
10.48, 106
10.49, 100
10.5, 111
10.51, 112
10.52, 119
10.53, 102
10.54, 138
10.55, 114
10.56, 110
10.57, 126
10.58, 101
10.59, 119
10.6, 112
10.61, 90
10.62, 112
10.63, 125
10.64, 115
10.65, 106
10.66, 110
10.67, 121
10.68, 108
10.69, 92
10.7, 112
10.71, 122
10.72, 128
10.73, 117
10.74, 119
10.75, 118
10.76, 126
10.77, 117
10.78, 118
10.79, 115
10.8, 125
10.81, 102
10.82, 97
10.83, 122
10.84, 113
10.85, 110
10.86, 110
10.87, 116
10.88, 107
10.89, 101
10.9, 103
10.91, 124
10.92, 113
10.93, 127
10.94, 111
10.95, 109
10.96, 114
10.97, 116
10.98, 126
10.99, 121
11, 102
11.01, 105
11.02, 100
11.03, 120
11.04, 116
11.05, 104
11.06, 119
11.07, 115
11.08, 113
11.09, 126
11.1, 112
11.11, 127
11.12, 117
11.13, 90
11.14, 124
11.15, 102
11.16, 105
11.17, 108
11.18, 121
11.19, 126
11.2, 115
11.21, 121
11.22, 103
11.23, 100
11.24, 117
11.25, 117
11.26, 122
11.27, 123
11.28, 119
11.29, 103
11.3, 110
11.31, 114
11.32, 112
11.33, 93
11.34, 104
11.35, 127
11.36, 101
11.37, 107
11.38, 121
11.39, 114
11.4, 137
11.41, 108
11.42, 95
11.43, 112
11.44, 101
11.45, 111
11.46, 125
11.47, 123
11.48, 118
11.49, 115
11.5, 113
11.51, 104
11.52, 134
11.53, 114
11.54, 98
11.55, 117
11.56, 123
11.57, 107
11.58, 124
11.59, 111
11.6, 102
11.61, 120
11.62, 110
11.63, 109
11.64, 95
11.65, 110
11.66, 87
11.67, 132
11.68, 104
11.69, 110
11.7, 102
11.71, 107
11.72, 111
11.73, 107
11.74, 121
11.75, 122
11.76, 108
11.77, 96
11.78, 118
11.79, 119
11.8, 126
11.81, 88
11.82, 108
11.83, 138
11.84, 119
11.85, 121
11.86, 133
11.87, 133
11.88, 100
11.89, 96
11.9, 113
11.91, 134
11.92, 107
11.93, 112
11.94, 123
11.95, 108
11.96, 114
11.97, 113
11.98, 114
11.99, 129
12, 112
12.01, 103
12.02, 88
12.03, 118
12.04, 116
12.05, 99
12.06, 143
12.07, 101
12.08, 126
12.09, 142
12.1, 108
12.11, 125
12.12, 123
12.13, 122
12.14, 108
12.15, 119
12.16, 129
12.17, 107
12.18, 131
12.19, 101
12.2, 106
12.21, 115
12.22, 129
12.23, 112
12.24, 135
12.25, 145
12.26, 122
12.27, 103
12.28, 120
12.29, 126
12.3, 122
12.31, 98
12.32, 96
12.33, 111
12.34, 103
12.35, 113
12.36, 110
12.37, 124
12.38, 118
12.39, 122
12.4, 108
12.41, 115
12.42, 107
12.43, 132
12.44, 119
12.45, 108
12.46, 114
12.47, 128
12.48, 118
12.49, 93
12.5, 109
12.51, 113
12.52, 110
12.53, 122
12.54, 107
12.55, 100
12.56, 107
12.57, 117
12.58, 99
12.59, 109
12.6, 115
12.61, 120
12.62, 114
12.63, 115
12.64, 110
12.65, 107
12.66, 114
12.67, 128
12.68, 119
12.69, 115
12.7, 116
12.71, 119
12.72, 120
12.73, 107
12.74, 123
12.75, 115
12.76, 110
12.77, 116
12.78, 109
12.79, 107
12.8, 128
12.81, 104
12.82, 128
12.83, 127
12.84, 114
12.85, 111
12.86, 107
12.87, 122
12.88, 123
12.89, 112
12.9, 109
12.91, 105
12.92, 99
12.93, 104
12.94, 131
12.95, 123
12.96, 103
12.97, 120
12.98, 121
12.99, 139
13, 149
13.01, 125
13.02, 104
13.03, 103
13.04, 119
13.05, 115
13.06, 106
13.07, 105
13.08, 119
13.09, 131
13.1, 114
13.11, 125
13.12, 109
13.13, 135
13.14, 118
13.15, 127
13.16, 121
13.17, 113
13.18, 112
13.19, 124
13.2, 111
13.21, 122
13.22, 124
13.23, 109
13.24, 121
13.25, 90
13.26, 117
13.27, 112
13.28, 102
13.29, 124
13.3, 125
13.31, 119
13.32, 109
13.33, 123
13.34, 124
13.35, 111
13.36, 132
13.37, 110
13.38, 112
13.39, 128
13.4, 117
13.41, 120
13.42, 118
13.43, 102
13.44, 103
13.45, 126
13.46, 119
13.47, 137
13.48, 108
13.49, 135
13.5, 118
13.51, 90
13.52, 118
13.53, 113
13.54, 122
13.55, 93
13.56, 105
13.57, 130
13.58, 125
13.59, 121
13.6, 110
13.61, 110
13.62, 103
13.63, 115
13.64, 132
13.65, 102
13.66, 118
13.67, 108
13.68, 130
13.69, 128
13.7, 131
13.71, 95
13.72, 130
13.73, 121
13.74, 120
13.75, 115
13.76, 112
13.77, 113
13.78, 106
13.79, 115
13.8, 104
13.81, 102
13.82, 107
13.83, 111
13.84, 115
13.85, 102
13.86, 108
13.87, 126
13.88, 110
13.89, 111
13.9, 116
13.91, 104
13.92, 118
13.93, 106
13.94, 106
13.95, 109
13.96, 119
13.97, 120
13.98, 97
13.99, 93
14, 100
14.01, 120
14.02, 115
14.03, 93
14.04, 111
14.05, 109
14.06, 112
14.07, 114
14.08, 123
14.09, 109
14.1, 107
14.11, 122
14.12, 120
14.13, 92
14.14, 109
14.15, 100
14.16, 119
14.17, 125
14.18, 124
14.19, 93
14.2, 110
14.21, 110
14.22, 115
14.23, 108
14.24, 109
14.25, 106
14.26, 112
14.27, 111
14.28, 113
14.29, 117
14.3, 124
14.31, 112
14.32, 118
14.33, 105
14.34, 108
14.35, 132
14.36, 100
14.37, 111
14.38, 115
14.39, 122
14.4, 121
14.41, 111
14.42, 109
14.43, 122
14.44, 132
14.45, 120
14.46, 108
14.47, 120
14.48, 123
14.49, 132
14.5, 115
14.51, 116
14.52, 106
14.53, 107
14.54, 106
14.55, 108
14.56, 118
14.57, 126
14.58, 94
14.59, 111
14.6, 142
14.61, 111
14.62, 114
14.63, 115
14.64, 110
14.65, 110
14.66, 118
14.67, 102
14.68, 115
14.69, 133
14.7, 120
14.71, 124
14.72, 120
14.73, 121
14.74, 105
14.75, 119
14.76, 123
14.77, 122
14.78, 110
14.79, 117
14.8, 130
14.81, 127
14.82, 128
14.83, 137
14.84, 117
14.85, 128
14.86, 107
14.87, 133
14.88, 111
14.89, 114
14.9, 108
14.91, 114
14.92, 102
14.93, 104
14.94, 135
14.95, 116
14.96, 118
14.97, 119
14.98, 106
14.99, 111
15, 97
15.01, 120
15.02, 123
15.03, 120
15.04, 130
15.05, 124
15.06, 129
15.07, 112
15.08, 103
15.09, 114
15.1, 116
15.11, 114
15.12, 115
15.13, 113
15.14, 125
15.15, 108
15.16, 112
15.17, 100
15.18, 103
15.19, 110
15.2, 121
15.21, 94
15.22, 119
15.23, 111
15.24, 136
15.25, 140
15.26, 123
15.27, 127
15.28, 86
15.29, 117
15.3, 131
15.31, 100
15.32, 117
15.33, 103
15.34, 114
15.35, 109
15.36, 106
15.37, 117
15.38, 110
15.39, 115
15.4, 131
15.41, 104
15.42, 128
15.43, 102
15.44, 128
15.45, 118
15.46, 118
15.47, 94
15.48, 104
15.49, 95
15.5, 150
15.51, 117
15.52, 112
15.53, 118
15.54, 118
15.55, 98
15.56, 115
15.57, 115
15.58, 102
15.59, 91
15.6, 132
15.61, 123
15.62, 127
15.63, 108
15.64, 105
15.65, 107
15.66, 120
15.67, 122
15.68, 112
15.69, 139
15.7, 112
15.71, 107
15.72, 102
15.73, 117
15.74, 96
15.75, 102
15.76, 115
15.77, 117
15.78, 97
15.79, 99
15.8, 111
15.81, 125
15.82, 119
15.83, 122
15.84, 109
15.85, 103
15.86, 115
15.87, 110
15.88, 103
15.89, 102
15.9, 105
15.91, 128
15.92, 106
15.93, 124
15.94, 101
15.95, 121
15.96, 118
15.97, 94
15.98, 109
15.99, 85
16, 116
16.01, 105
16.02, 108
16.03, 107
16.04, 115
16.05, 112
16.06, 120
16.07, 118
16.08, 122
16.09, 97
16.1, 105
16.11, 115
16.12, 114
16.13, 105
16.14, 114
16.15, 87
16.16, 128
16.17, 124
16.18, 110
16.19, 106
16.2, 112
16.21, 126
16.22, 107
16.23, 111
16.24, 122
16.25, 97
16.26, 124
16.27, 108
16.28, 113
16.29, 113
16.3, 91
16.31, 115
16.32, 112
16.33, 99
16.34, 130
16.35, 109
16.36, 106
16.37, 110
16.38, 130
16.39, 128
16.4, 98
16.41, 133
16.42, 127
16.43, 102
16.44, 131
16.45, 121
16.46, 117
16.47, 116
16.48, 100
16.49, 118
16.5, 118
16.51, 117
16.52, 121
16.53, 120
16.54, 114
16.55, 118
16.56, 101
16.57, 117
16.58, 113
16.59, 127
16.6, 127
16.61, 110
16.62, 119
16.63, 112
16.64, 104
16.65, 129
16.66, 99
16.67, 116
16.68, 128
16.69, 96
16.7, 103
16.71, 99
16.72, 118
16.73, 105
16.74, 137
16.75, 105
16.76, 106
16.77, 109
16.78, 107
16.79, 116
16.8, 100
16.81, 108
16.82, 114
16.83, 130
16.84, 107
16.85, 111
16.86, 99
16.87, 129
16.88, 119
16.89, 122
16.9, 111
16.91, 134
16.92, 103
16.93, 111
16.94, 90
16.95, 114
16.96, 109
16.97, 113
16.98, 97
16.99, 109
17, 137
17.01, 124
17.02, 106
17.03, 108
17.04, 116
17.05, 106
17.06, 129
17.07, 105
17.08, 125
17.09, 140
17.1, 122
17.11, 109
17.12, 107
17.13, 127
17.14, 116
17.15, 101
17.16, 126
17.17, 110
17.18, 119
17.19, 128
17.2, 124
17.21, 123
17.22, 106
17.23, 118
17.24, 124
17.25, 117
17.26, 101
17.27, 112
17.28, 101
17.29, 131
17.3, 118
17.31, 108
17.32, 102
17.33, 103
17.34, 128
17.35, 106
17.36, 123
17.37, 111
17.38, 108
17.39, 117
17.4, 109
17.41, 111
17.42, 116
17.43, 116
17.44, 103
17.45, 122
17.46, 113
17.47, 107
17.48, 124
17.49, 127
17.5, 120
17.51, 111
17.52, 113
17.53, 107
17.54, 107
17.55, 129
17.56, 112
17.57, 110
17.58, 88
17.59, 125
17.6, 118
17.61, 122
17.62, 94
17.63, 109
17.64, 130
17.65, 99
17.66, 119
17.67, 101
17.68, 117
17.69, 138
17.7, 112
17.71, 101
17.72, 115
17.73, 114
17.74, 93
17.75, 108
17.76, 99
17.77, 122
17.78, 118
17.79, 113
17.8, 124
17.81, 108
17.82, 130
17.83, 137
17.84, 102
17.85, 120
17.86, 112
17.87, 119
17.88, 114
17.89, 107
17.9, 101
17.91, 116
17.92, 108
17.93, 115
17.94, 116
17.95, 114
17.96, 104
17.97, 120
17.98, 113
17.99, 125
18, 109
18.01, 111
18.02, 128
18.03, 128
18.04, 135
18.05, 124
18.06, 115
18.07, 122
18.08, 108
18.09, 110
18.1, 110
18.11, 94
18.12, 113
18.13, 119
18.14, 110
18.15, 110
18.16, 104
18.17, 115
18.18, 120
18.19, 118
18.2, 120
18.21, 109
18.22, 111
18.23, 118
18.24, 122
18.25, 120
18.26, 102
18.27, 121
18.28, 116
18.29, 128
18.3, 101
18.31, 106
18.32, 107
18.33, 122
18.34, 125
18.35, 97
18.36, 101
18.37, 102
18.38, 123
18.39, 104
18.4, 126
18.41, 122
18.42, 118
18.43, 119
18.44, 115
18.45, 108
18.46, 140
18.47, 115
18.48, 105
18.49, 122
18.5, 129
18.51, 93
18.52, 125
18.53, 125
18.54, 112
18.55, 113
18.56, 123
18.57, 129
18.58, 108
18.59, 131
18.6, 116
18.61, 130
18.62, 126
18.63, 107
18.64, 117
18.65, 89
18.66, 133
18.67, 137
18.68, 120
18.69, 114
18.7, 100
18.71, 121
18.72, 134
18.73, 101
18.74, 123
18.75, 128
18.76, 130
18.77, 114
18.78, 123
18.79, 137
18.8, 117
18.81, 129
18.82, 106
18.83, 140
18.84, 161
18.85, 139
18.86, 163
18.87, 179
18.88, 205
18.89, 253
18.9, 292
18.91, 339
18.92, 320
18.93, 277
18.94, 236
18.95, 242
18.96, 217
18.97, 234
18.98, 192
18.99, 161
19, 138
19.01, 132
19.02, 109
19.03, 108
19.04, 123
19.05, 124
19.06, 129
19.07, 119
19.08, 105
19.09, 111
19.1, 112
19.11, 130
19.12, 105
19.13, 122
19.14, 110
19.15, 94
19.16, 144
19.17, 104
19.18, 90
19.19, 106
19.2, 127
19.21, 118
19.22, 113
19.23, 144
19.24, 108
19.25, 109
19.26, 110
19.27, 98
19.28, 134
19.29, 112
19.3, 118
19.31, 102
19.32, 104
19.33, 141
19.34, 115
19.35, 115
19.36, 119
19.37, 116
19.38, 128
19.39, 91
19.4, 118
19.41, 131
19.42, 120
19.43, 132
19.44, 122
19.45, 112
19.46, 113
19.47, 135
19.48, 137
19.49, 118
19.5, 113
19.51, 98
19.52, 137
19.53, 107
19.54, 110
19.55, 126
19.56, 133
19.57, 108
19.58, 117
19.59, 121
19.6, 115
19.61, 105
19.62, 98
19.63, 104
19.64, 110
19.65, 115
19.66, 99
19.67, 133
19.68, 104
19.69, 103
19.7, 97
19.71, 108
19.72, 125
19.73, 102
19.74, 112
19.75, 108
19.76, 107
19.77, 116
19.78, 115
19.79, 112
19.8, 117
19.81, 123
19.82, 98
19.83, 92
19.84, 94
19.85, 106
19.86, 111
19.87, 126
19.88, 121
19.89, 104
19.9, 109
19.91, 104
19.92, 126
19.93, 109
19.94, 116
19.95, 123
19.96, 123
19.97, 121
19.98, 122
19.99, 119
20, 115
20.01, 109
20.02, 122
20.03, 114
20.04, 114
20.05, 119
20.06, 113
20.07, 97
20.08, 88
20.09, 109
20.1, 115
20.11, 108
20.12, 94
20.13, 90
20.14, 130
20.15, 110
20.16, 105
20.17, 98
20.18, 126
20.19, 111
20.2, 111
20.21, 119
20.22, 106
20.23, 102
20.24, 123
20.25, 124
20.26, 96
20.27, 128
20.28, 129
20.29, 119
20.3, 134
20.31, 109
20.32, 123
20.33, 108
20.34, 100
20.35, 114
20.36, 126
20.37, 119
20.38, 104
20.39, 111
20.4, 93
20.41, 128
20.42, 107
20.43, 108
20.44, 119
20.45, 101
20.46, 114
20.47, 104
20.48, 122
20.49, 127
20.5, 120
20.51, 112
20.52, 133
20.53, 117
20.54, 116
20.55, 106
20.56, 136
20.57, 107
20.58, 115
20.59, 133
20.6, 108
20.61, 104
20.62, 127
20.63, 102
20.64, 113
20.65, 125
20.66, 125
20.67, 114
20.68, 119
20.69, 106
20.7, 111
20.71, 110
20.72, 131
20.73, 125
20.74, 112
20.75, 115
20.76, 105
20.77, 102
20.78, 112
20.79, 110
20.8, 111
20.81, 119
20.82, 103
20.83, 108
20.84, 114
20.85, 104
20.86, 111
20.87, 132
20.88, 136
20.89, 90
20.9, 96
20.91, 117
20.92, 111
20.93, 118
20.94, 117
20.95, 127
20.96, 136
20.97, 150
20.98, 86
20.99, 103
21, 109
21.01, 111
21.02, 111
21.03, 113
21.04, 121
21.05, 115
21.06, 134
21.07, 102
21.08, 102
21.09, 104
21.1, 121
21.11, 128
21.12, 107
21.13, 125
21.14, 113
21.15, 122
21.16, 114
21.17, 93
21.18, 130
21.19, 121
21.2, 109
21.21, 108
21.22, 106
21.23, 117
21.24, 125
21.25, 109
21.26, 115
21.27, 118
21.28, 117
21.29, 106
21.3, 113
21.31, 106
21.32, 94
21.33, 118
21.34, 113
21.35, 124
21.36, 115
21.37, 99
21.38, 112
21.39, 110
21.4, 137
21.41, 122
21.42, 98
21.43, 112
21.44, 90
21.45, 125
21.46, 131
21.47, 103
21.48, 103
21.49, 114
21.5, 109
21.51, 118
21.52, 127
21.53, 121
21.54, 101
21.55, 109
21.56, 114
21.57, 132
21.58, 119
21.59, 136
21.6, 123
21.61, 99
21.62, 119
21.63, 115
21.64, 100
21.65, 130
21.66, 105
21.67, 110
21.68, 114
21.69, 121
21.7, 116
21.71, 104
21.72, 114
21.73, 130
21.74, 123
21.75, 108
21.76, 105
21.77, 123
21.78, 141
21.79, 115
21.8, 123
21.81, 108
21.82, 113
21.83, 136
21.84, 109
21.85, 129
21.86, 125
21.87, 135
21.88, 124
21.89, 90
21.9, 113
21.91, 119
21.92, 113
21.93, 102
21.94, 129
21.95, 121
21.96, 101
21.97, 133
21.98, 111
21.99, 109
22, 125
22.01, 125
22.02, 126
22.03, 115
22.04, 113
22.05, 96
22.06, 91
22.07, 116
22.08, 102
22.09, 105
22.1, 119
22.11, 107
22.12, 115
22.13, 115
22.14, 96
22.15, 112
22.16, 102
22.17, 123
22.18, 125
22.19, 114
22.2, 108
22.21, 130
22.22, 99
22.23, 118
22.24, 100
22.25, 134
22.26, 93
22.27, 123
22.28, 124
22.29, 129
22.3, 117
22.31, 134
22.32, 102
22.33, 110
22.34, 107
22.35, 111
22.36, 93
22.37, 125
22.38, 111
22.39, 108
22.4, 128
22.41, 125
22.42, 120
22.43, 134
22.44, 106
22.45, 111
22.46, 117
22.47, 126
22.48, 123
22.49, 124
22.5, 115
22.51, 102
22.52, 119
22.53, 124
22.54, 111
22.55, 111
22.56, 110
22.57, 105
22.58, 112
22.59, 133
22.6, 136
22.61, 115
22.62, 117
22.63, 140
22.64, 118
22.65, 124
22.66, 108
22.67, 112
22.68, 115
22.69, 92
22.7, 114
22.71, 117
22.72, 110
22.73, 108
22.74, 116
22.75, 116
22.76, 103
22.77, 98
22.78, 116
22.79, 118
22.8, 116
22.81, 124
22.82, 95
22.83, 125
22.84, 113
22.85, 96
22.86, 109
22.87, 104
22.88, 112
22.89, 96
22.9, 109
22.91, 102
22.92, 110
22.93, 97
22.94, 108
22.95, 120
22.96, 107
22.97, 116
22.98, 132
22.99, 110
23, 121
23.01, 129
23.02, 102
23.03, 111
23.04, 110
23.05, 106
23.06, 118
23.07, 113
23.08, 117
23.09, 110
23.1, 105
23.11, 125
23.12, 106
23.13, 116
23.14, 127
23.15, 112
23.16, 119
23.17, 102
23.18, 116
23.19, 107
23.2, 127
23.21, 110
23.22, 107
23.23, 109
23.24, 117
23.25, 117
23.26, 117
23.27, 115
23.28, 118
23.29, 105
23.3, 118
23.31, 122
23.32, 112
23.33, 118
23.34, 104
23.35, 111
23.36, 133
23.37, 120
23.38, 112
23.39, 111
23.4, 111
23.41, 96
23.42, 98
23.43, 103
23.44, 124
23.45, 120
23.46, 121
23.47, 116
23.48, 124
23.49, 116
23.5, 111
23.51, 117
23.52, 107
23.53, 110
23.54, 103
23.55, 120
23.56, 120
23.57, 100
23.58, 121
23.59, 136
23.6, 109
23.61, 96
23.62, 99
23.63, 101
23.64, 122
23.65, 132
23.66, 115
23.67, 121
23.68, 136
23.69, 91
23.7, 109
23.71, 108
23.72, 97
23.73, 111
23.74, 129
23.75, 117
23.76, 124
23.77, 117
23.78, 100
23.79, 104
23.8, 114
23.81, 94
23.82, 97
23.83, 107
23.84, 103
23.85, 114
23.86, 106
23.87, 94
23.88, 147
23.89, 110
23.9, 107
23.91, 108
23.92, 118
23.93, 123
23.94, 116
23.95, 124
23.96, 120
23.97, 119
23.98, 105
23.99, 109
24, 114
24.01, 105
24.02, 100
24.03, 109
24.04, 115
24.05, 115
24.06, 99
24.07, 110
24.08, 113
24.09, 94
24.1, 122
24.11, 118
24.12, 110
24.13, 109
24.14, 99
24.15, 101
24.16, 107
24.17, 121
24.18, 131
24.19, 107
24.2, 116
24.21, 128
24.22, 124
24.23, 94
24.24, 109
24.25, 126
24.26, 127
24.27, 128
24.28, 92
24.29, 112
24.3, 135
24.31, 109
24.32, 113
24.33, 96
24.34, 113
24.35, 99
24.36, 130
24.37, 124
24.38, 104
24.39, 131
24.4, 112
24.41, 105
24.42, 116
24.43, 115
24.44, 121
24.45, 107
24.46, 108
24.47, 98
24.48, 105
24.49, 109
24.5, 111
24.51, 109
24.52, 115
24.53, 99
24.54, 105
24.55, 127
24.56, 118
24.57, 118
24.58, 105
24.59, 120
24.6, 106
24.61, 110
24.62, 103
24.63, 107
24.64, 115
24.65, 105
24.66, 122
24.67, 135
24.68, 113
24.69, 133
24.7, 108
24.71, 103
24.72, 121
24.73, 120
24.74, 110
24.75, 140
24.76, 101
24.77, 118
24.78, 109
24.79, 111
24.8, 100
24.81, 106
24.82, 122
24.83, 130
24.84, 103
24.85, 114
24.86, 107
24.87, 101
24.88, 105
24.89, 107
24.9, 103
24.91, 117
24.92, 112
24.93, 97
24.94, 106
24.95, 110
24.96, 101
24.97, 106
24.98, 107
24.99, 123
25, 105
25.01, 125
25.02, 119
25.03, 123
25.04, 132
25.05, 132
25.06, 106
25.07, 112
25.08, 104
25.09, 107
25.1, 114
25.11, 113
25.12, 144
25.13, 86
25.14, 116
25.15, 106
25.16, 102
25.17, 131
25.18, 113
25.19, 115
25.2, 87
25.21, 118
25.22, 119
25.23, 98
25.24, 100
25.25, 105
25.26, 119
25.27, 125
25.28, 132
25.29, 118
25.3, 99
25.31, 101
25.32, 102
25.33, 104
25.34, 118
25.35, 123
25.36, 103
25.37, 127
25.38, 109
25.39, 103
25.4, 120
25.41, 114
25.42, 104
25.43, 120
25.44, 128
25.45, 114
25.46, 136
25.47, 110
25.48, 99
25.49, 125
25.5, 115
25.51, 127
25.52, 114
25.53, 111
25.54, 108
25.55, 122
25.56, 117
25.57, 105
25.58, 108
25.59, 133
25.6, 122
25.61, 113
25.62, 127
25.63, 121
25.64, 128
25.65, 109
25.66, 132
25.67, 124
25.68, 121
25.69, 107
25.7, 141
25.71, 131
25.72, 120
25.73, 115
25.74, 113
25.75, 103
25.76, 129
25.77, 112
25.78, 105
25.79, 128
25.8, 100
25.81, 120
25.82, 102
25.83, 110
25.84, 105
25.85, 109
25.86, 112
25.87, 122
25.88, 109
25.89, 104
25.9, 120
25.91, 126
25.92, 107
25.93, 119
25.94, 123
25.95, 116
25.96, 123
25.97, 110
25.98, 118
25.99, 106
26, 116
26.01, 127
26.02, 109
26.03, 96
26.04, 112
26.05, 102
26.06, 108
26.07, 107
26.08, 133
26.09, 95
26.1, 102
26.11, 116
26.12, 123
26.13, 101
26.14, 108
26.15, 103
26.16, 96
26.17, 102
26.18, 113
26.19, 123
26.2, 122
26.21, 120
26.22, 113
26.23, 113
26.24, 127
26.25, 110
26.26, 117
26.27, 118
26.28, 113
26.29, 120
26.3, 126
26.31, 119
26.32, 118
26.33, 106
26.34, 94
26.35, 106
26.36, 114
26.37, 102
26.38, 112
26.39, 125
26.4, 122
26.41, 98
26.42, 92
26.43, 99
26.44, 110
26.45, 105
26.46, 102
26.47, 108
26.48, 117
26.49, 126
26.5, 109
26.51, 94
26.52, 110
26.53, 111
26.54, 121
26.55, 107
26.56, 84
26.57, 108
26.58, 117
26.59, 104
26.6, 120
26.61, 127
26.62, 111
26.63, 109
26.64, 115
26.65, 121
26.66, 117
26.67, 111
26.68, 120
26.69, 130
26.7, 100
26.71, 123
26.72, 106
26.73, 120
26.74, 124
26.75, 106
26.76, 115
26.77, 103
26.78, 116
26.79, 114
26.8, 105
26.81, 106
26.82, 109
26.83, 98
26.84, 121
26.85, 119
26.86, 123
26.87, 97
26.88, 101
26.89, 103
26.9, 98
26.91, 115
26.92, 108
26.93, 104
26.94, 115
26.95, 106
26.96, 127
26.97, 111
26.98, 111
26.99, 101
27, 103
27.01, 109
27.02, 114
27.03, 108
27.04, 104
27.05, 84
27.06, 122
27.07, 109
27.08, 113
27.09, 121
27.1, 95
27.11, 101
27.12, 111
27.13, 118
27.14, 93
27.15, 96
27.16, 98
27.17, 116
27.18, 128
27.19, 114
27.2, 100
27.21, 95
27.22, 105
27.23, 118
27.24, 120
27.25, 135
27.26, 135
27.27, 103
27.28, 124
27.29, 113
27.3, 112
27.31, 123
27.32, 124
27.33, 122
27.34, 96
27.35, 121
27.36, 104
27.37, 125
27.38, 115
27.39, 119
27.4, 117
27.41, 104
27.42, 119
27.43, 100
27.44, 95
27.45, 120
27.46, 107
27.47, 97
27.48, 110
27.49, 108
27.5, 116
27.51, 122
27.52, 141
27.53, 112
27.54, 137
27.55, 111
27.56, 96
27.57, 93
27.58, 122
27.59, 104
27.6, 97
27.61, 114
27.62, 118
27.63, 116
27.64, 127
27.65, 122
27.66, 114
27.67, 133
27.68, 117
27.69, 105
27.7, 107
27.71, 99
27.72, 89
27.73, 98
27.74, 116
27.75, 97
27.76, 122
27.77, 127
27.78, 128
27.79, 108
27.8, 113
27.81, 128
27.82, 107
27.83, 93
27.84, 125
27.85, 106
27.86, 117
27.87, 106
27.88, 106
27.89, 120
27.9, 104
27.91, 147
27.92, 119
27.93, 92
27.94, 127
27.95, 101
27.96, 110
27.97, 122
27.98, 101
27.99, 131
28, 114
28.01, 115
28.02, 112
28.03, 107
28.04, 121
28.05, 122
28.06, 144
28.07, 118
28.08, 92
28.09, 116
28.1, 112
28.11, 117
28.12, 117
28.13, 100
28.14, 121
28.15, 124
28.16, 101
28.17, 102
28.18, 114
28.19, 110
28.2, 118
28.21, 117
28.22, 116
28.23, 101
28.24, 97
28.25, 105
28.26, 111
28.27, 106
28.28, 111
28.29, 115
28.3, 107
28.31, 116
28.32, 131
28.33, 111
28.34, 107
28.35, 101
28.36, 106
28.37, 111
28.38, 119
28.39, 116
28.4, 103
28.41, 133
28.42, 110
28.43, 109
28.44, 111
28.45, 99
28.46, 106
28.47, 96
28.48, 103
28.49, 111
28.5, 107
28.51, 119
28.52, 128
28.53, 112
28.54, 115
28.55, 135
28.56, 100
28.57, 98
28.58, 99
28.59, 112
28.6, 100
28.61, 147
28.62, 108
28.63, 116
28.64, 90
28.65, 114
28.66, 127
28.67, 92
28.68, 106
28.69, 96
28.7, 119
28.71, 125
28.72, 100
28.73, 108
28.74, 113
28.75, 121
28.76, 119
28.77, 122
28.78, 106
28.79, 123
28.8, 115
28.81, 101
28.82, 110
28.83, 112
28.84, 120
28.85, 102
28.86, 97
28.87, 111
28.88, 112
28.89, 112
28.9, 122
28.91, 118
28.92, 115
28.93, 110
28.94, 109
28.95, 99
28.96, 114
28.97, 121
28.98, 95
28.99, 117
29, 116
29.01, 118
29.02, 108
29.03, 133
29.04, 124
29.05, 96
29.06, 111
29.07, 114
29.08, 114
29.09, 125
29.1, 115
29.11, 114
29.12, 134
29.13, 112
29.14, 102
29.15, 110
29.16, 110
29.17, 127
29.18, 120
29.19, 116
29.2, 134
29.21, 119
29.22, 116
29.23, 118
29.24, 118
29.25, 120
29.26, 123
29.27, 109
29.28, 101
29.29, 119
29.3, 107
29.31, 92
29.32, 108
29.33, 132
29.34, 120
29.35, 119
29.36, 117
29.37, 122
29.38, 116
29.39, 119
29.4, 115
29.41, 125
29.42, 126
29.43, 115
29.44, 108
29.45, 118
29.46, 89
29.47, 124
29.48, 107
29.49, 108
29.5, 117
29.51, 115
29.52, 118
29.53, 106
29.54, 124
29.55, 111
29.56, 121
29.57, 112
29.58, 96
29.59, 117
29.6, 117
29.61, 117
29.62, 105
29.63, 117
29.64, 117
29.65, 120
29.66, 104
29.67, 95
29.68, 124
29.69, 114
29.7, 105
29.71, 117
29.72, 106
29.73, 117
29.74, 125
29.75, 126
29.76, 129
29.77, 102
29.78, 130
29.79, 111
29.8, 100
29.81, 103
29.82, 96
29.83, 114
29.84, 133
29.85, 118
29.86, 114
29.87, 115
29.88, 114
29.89, 108
29.9, 96
29.91, 131
29.92, 116
29.93, 116
29.94, 107
29.95, 117
29.96, 113
29.97, 118
29.98, 103
29.99, 103
30, 120
30.01, 98
30.02, 94
30.03, 104
30.04, 101
30.05, 127
30.06, 120
30.07, 113
30.08, 125
30.09, 109
30.1, 98
30.11, 117
30.12, 117
30.13, 118
30.14, 96
30.15, 96
30.16, 116
30.17, 106
30.18, 130
30.19, 131
30.2, 101
30.21, 92
30.22, 118
30.23, 114
30.24, 123
30.25, 87
30.26, 124
30.27, 116
30.28, 110
30.29, 108
30.3, 100
30.31, 116
30.32, 124
30.33, 121
30.34, 109
30.35, 99
30.36, 116
30.37, 129
30.38, 101
30.39, 144
30.4, 100
30.41, 130
30.42, 109
30.43, 120
30.44, 98
30.45, 109
30.46, 100
30.47, 123
30.48, 113
30.49, 136
30.5, 116
30.51, 107
30.52, 129
30.53, 129
30.54, 114
30.55, 119
30.56, 145
30.57, 129
30.58, 118
30.59, 117
30.6, 105
30.61, 123
30.62, 123
30.63, 119
30.64, 106
30.65, 128
30.66, 108
30.67, 118
30.68, 116
30.69, 107
30.7, 125
30.71, 110
30.72, 136
30.73, 113
30.74, 119
30.75, 119
30.76, 107
30.77, 121
30.78, 95
30.79, 116
30.8, 105
30.81, 137
30.82, 122
30.83, 111
30.84, 113
30.85, 128
30.86, 134
30.87, 141
30.88, 118
30.89, 126
30.9, 125
30.91, 113
30.92, 143
30.93, 133
30.94, 158
30.95, 121
30.96, 150
30.97, 132
30.98, 133
30.99, 135
31, 148
31.01, 130
31.02, 144
31.03, 163
31.04, 180
31.05, 206
31.06, 250
31.07, 301
31.08, 361
31.09, 482
31.1, 672
31.11, 678
31.12, 642
31.13, 498
31.14, 392
31.15, 349
31.16, 324
31.17, 336
31.18, 407
31.19, 412
31.2, 391
31.21, 325
31.22, 238
31.23, 218
31.24, 188
31.25, 147
31.26, 128
31.27, 168
31.28, 160
31.29, 141
31.3, 160
31.31, 152
31.32, 147
31.33, 117
31.34, 137
31.35, 131
31.36, 142
31.37, 133
31.38, 103
31.39, 101
31.4, 107
31.41, 113
31.42, 113
31.43, 113
31.44, 112
31.45, 113
31.46, 112
31.47, 113
31.48, 112
31.49, 113
31.5, 113
31.51, 122
31.52, 118
31.53, 133
31.54, 116
31.55, 112
31.56, 114
31.57, 122
31.58, 105
31.59, 95
31.6, 115
31.61, 107
31.62, 120
31.63, 111
31.64, 113
31.65, 108
31.66, 104
31.67, 118
31.68, 115
31.69, 106
31.7, 110
31.71, 120
31.72, 90
31.73, 129
31.74, 121
31.75, 130
31.76, 134
31.77, 94
31.78, 114
31.79, 98
31.8, 105
31.81, 124
31.82, 125
31.83, 111
31.84, 115
31.85, 145
31.86, 100
31.87, 109
31.88, 123
31.89, 94
31.9, 116
31.91, 118
31.92, 119
31.93, 140
31.94, 108
31.95, 103
31.96, 108
31.97, 119
31.98, 112
31.99, 105
32, 108
32.01, 122
32.02, 120
32.03, 114
32.04, 110
32.05, 100
32.06, 102
32.07, 102
32.08, 105
32.09, 104
32.1, 124
32.11, 109
32.12, 103
32.13, 119
32.14, 111
32.15, 102
32.16, 113
32.17, 97
32.18, 110
32.19, 121
32.2, 119
32.21, 121
32.22, 141
32.23, 125
32.24, 113
32.25, 108
32.26, 117
32.27, 97
32.28, 102
32.29, 110
32.3, 99
32.31, 98
32.32, 106
32.33, 102
32.34, 111
32.35, 116
32.36, 117
32.37, 94
32.38, 110
32.39, 105
32.4, 126
32.41, 112
32.42, 102
32.43, 115
32.44, 95
32.45, 122
32.46, 99
32.47, 101
32.48, 119
32.49, 101
32.5, 118
32.51, 111
32.52, 116
32.53, 106
32.54, 99
32.55, 126
32.56, 127
32.57, 104
32.58, 117
32.59, 101
32.6, 115
32.61, 95
32.62, 106
32.63, 107
32.64, 105
32.65, 116
32.66, 109
32.67, 114
32.68, 110
32.69, 115
32.7, 109
32.71, 108
32.72, 103
32.73, 111
32.74, 121
32.75, 99
32.76, 108
32.77, 96
32.78, 118
32.79, 115
32.8, 122
32.81, 108
32.82, 124
32.83, 117
32.84, 112
32.85, 119
32.86, 112
32.87, 126
32.88, 129
32.89, 112
32.9, 107
32.91, 129
32.92, 132
32.93, 112
32.94, 115
32.95, 130
32.96, 113
32.97, 130
32.98, 109
32.99, 129
33, 127
33.01, 135
33.02, 155
33.03, 131
33.04, 146
33.05, 109
33.06, 105
33.07, 138
33.08, 123
33.09, 92
33.1, 109
33.11, 123
33.12, 120
33.13, 107
33.14, 122
33.15, 112
33.16, 124
33.17, 121
33.18, 106
33.19, 121
33.2, 113
33.21, 112
33.22, 110
33.23, 106
33.24, 118
33.25, 107
33.26, 105
33.27, 116
33.28, 112
33.29, 104
33.3, 104
33.31, 112
33.32, 109
33.33, 114
33.34, 123
33.35, 112
33.36, 127
33.37, 105
33.38, 105
33.39, 106
33.4, 110
33.41, 118
33.42, 114
33.43, 120
33.44, 129
33.45, 116
33.46, 120
33.47, 107
33.48, 108
33.49, 105
33.5, 112
33.51, 110
33.52, 94
33.53, 108
33.54, 91
33.55, 99
33.56, 113
33.57, 112
33.58, 112
33.59, 105
33.6, 115
33.61, 134
33.62, 129
33.63, 120
33.64, 117
33.65, 114
33.66, 125
33.67, 126
33.68, 101
33.69, 118
33.7, 120
33.71, 117
33.72, 110
33.73, 133
33.74, 106
33.75, 124
33.76, 124
33.77, 108
33.78, 121
33.79, 107
33.8, 119
33.81, 118
33.82, 114
33.83, 103
33.84, 119
33.85, 96
33.86, 115
33.87, 104
33.88, 119
33.89, 109
33.9, 111
33.91, 104
33.92, 105
33.93, 120
33.94, 118
33.95, 92
33.96, 95
33.97, 117
33.98, 91
33.99, 122
34, 134
34.01, 107
34.02, 119
34.03, 130
34.04, 95
34.05, 97
34.06, 111
34.07, 105
34.08, 113
34.09, 134
34.1, 112
34.11, 112
34.12, 119
34.13, 107
34.14, 123
34.15, 116
34.16, 109
34.17, 102
34.18, 113
34.19, 98
34.2, 120
34.21, 124
34.22, 133
34.23, 116
34.24, 113
34.25, 117
34.26, 123
34.27, 109
34.28, 128
34.29, 133
34.3, 128
34.31, 124
34.32, 134
34.33, 101
34.34, 128
34.35, 102
34.36, 119
34.37, 113
34.38, 103
34.39, 113
34.4, 114
34.41, 117
34.42, 122
34.43, 94
34.44, 112
34.45, 116
34.46, 93
34.47, 115
34.48, 112
34.49, 105
34.5, 98
34.51, 109
34.52, 112
34.53, 112
34.54, 104
34.55, 118
34.56, 103
34.57, 109
34.58, 110
34.59, 114
34.6, 105
34.61, 125
34.62, 118
34.63, 99
34.64, 126
34.65, 106
34.66, 117
34.67, 123
34.68, 90
34.69, 99
34.7, 123
34.71, 106
34.72, 129
34.73, 123
34.74, 103
34.75, 121
34.76, 120
34.77, 119
34.78, 123
34.79, 119
34.8, 112
34.81, 114
34.82, 87
34.83, 106
34.84, 113
34.85, 110
34.86, 98
34.87, 129
34.88, 106
34.89, 103
34.9, 112
34.91, 103
34.92, 117
34.93, 96
34.94, 131
34.95, 118
34.96, 124
34.97, 102
34.98, 101
34.99, 112
35, 107
35.01, 114
35.02, 113
35.03, 127
35.04, 116
35.05, 108
35.06, 117
35.07, 113
35.08, 119
35.09, 118
35.1, 111
35.11, 130
35.12, 110
35.13, 134
35.14, 152
35.15, 127
35.16, 133
35.17, 132
35.18, 111
35.19, 130
35.2, 124
35.21, 120
35.22, 142
35.23, 125
35.24, 130
35.25, 125
35.26, 120
35.27, 145
35.28, 125
35.29, 123
35.3, 95
35.31, 99
35.32, 120
35.33, 127
35.34, 112
35.35, 131
35.36, 107
35.37, 110
35.38, 130
35.39, 125
35.4, 128
35.41, 117
35.42, 122
35.43, 114
35.44, 125
35.45, 113
35.46, 128
35.47, 119
35.48, 115
35.49, 112
35.5, 114
35.51, 109
35.52, 118
35.53, 124
35.54, 111
35.55, 96
35.56, 111
35.57, 110
35.58, 108
35.59, 116
35.6, 106
35.61, 117
35.62, 113
35.63, 108
35.64, 144
35.65, 126
35.66, 109
35.67, 114
35.68, 126
35.69, 102
35.7, 114
35.71, 114
35.72, 122
35.73, 133
35.74, 122
35.75, 131
35.76, 113
35.77, 118
35.78, 119
35.79, 120
35.8, 118
35.81, 100
35.82, 109
35.83, 110
35.84, 122
35.85, 120
35.86, 104
35.87, 112
35.88, 108
35.89, 110
35.9, 121
35.91, 107
35.92, 121
35.93, 126
35.94, 136
35.95, 119
35.96, 134
35.97, 123
35.98, 105
35.99, 109
36, 105
36.01, 135
36.02, 104
36.03, 126
36.04, 110
36.05, 134
36.06, 118
36.07, 101
36.08, 127
36.09, 123
36.1, 113
36.11, 91
36.12, 118
36.13, 114
36.14, 125
36.15, 114
36.16, 101
36.17, 131
36.18, 128
36.19, 107
36.2, 123
36.21, 116
36.22, 105
36.23, 119
36.24, 123
36.25, 109
36.26, 131
36.27, 107
36.28, 135
36.29, 109
36.3, 109
36.31, 124
36.32, 130
36.33, 103
36.34, 146
36.35, 125
36.36, 133
36.37, 123
36.38, 148
36.39, 124
36.4, 149
36.41, 117
36.42, 129
36.43, 153
36.44, 160
36.45, 145
36.46, 175
36.47, 154
36.48, 171
36.49, 173
36.5, 154
36.51, 143
36.52, 167
36.53, 200
36.54, 216
36.55, 208
36.56, 235
36.57, 220
36.58, 280
36.59, 330
36.6, 405
36.61, 525
36.62, 680
36.63, 892
36.64, 1271
36.65, 1490
36.66, 1514
36.67, 1195
36.68, 819
36.69, 526
36.7, 535
36.71, 532
36.72, 581
36.73, 661
36.74, 809
36.75, 889
36.76, 687
36.77, 493
36.78, 387
36.79, 295
36.8, 226
36.81, 228
36.82, 197
36.83, 208
36.84, 186
36.85, 173
36.86, 179
36.87, 175
36.88, 137
36.89, 157
36.9, 150
36.91, 124
36.92, 157
36.93, 148
36.94, 147
36.95, 126
36.96, 130
36.97, 137
36.98, 162
36.99, 123
37, 125
37.01, 115
37.02, 133
37.03, 127
37.04, 122
37.05, 134
37.06, 134
37.07, 146
37.08, 128
37.09, 119
37.1, 147
37.11, 141
37.12, 101
37.13, 129
37.14, 122
37.15, 124
37.16, 127
37.17, 120
37.18, 133
37.19, 126
37.2, 149
37.21, 125
37.22, 129
37.23, 119
37.24, 113
37.25, 111
37.26, 114
37.27, 119
37.28, 131
37.29, 113
37.3, 131
37.31, 114
37.32, 99
37.33, 108
37.34, 114
37.35, 124
37.36, 105
37.37, 122
37.38, 97
37.39, 104
37.4, 110
37.41, 107
37.42, 118
37.43, 111
37.44, 137
37.45, 130
37.46, 91
37.47, 142
37.48, 114
37.49, 106
37.5, 118
37.51, 119
37.52, 112
37.53, 128
37.54, 122
37.55, 122
37.56, 125
37.57, 111
37.58, 115
37.59, 123
37.6, 129
37.61, 114
37.62, 85
37.63, 105
37.64, 98
37.65, 102
37.66, 106
37.67, 111
37.68, 117
37.69, 105
37.7, 140
37.71, 125
37.72, 106
37.73, 98
37.74, 96
37.75, 113
37.76, 123
37.77, 114
37.78, 131
37.79, 134
37.8, 142
37.81, 124
37.82, 119
37.83, 109
37.84, 100
37.85, 93
37.86, 123
37.87, 118
37.88, 130
37.89, 119
37.9, 114
37.91, 116
37.92, 100
37.93, 101
37.94, 110
37.95, 123
37.96, 98
37.97, 129
37.98, 124
37.99, 127
38, 108
38.01, 118
38.02, 107
38.03, 110
38.04, 115
38.05, 119
38.06, 114
38.07, 106
38.08, 121
38.09, 109
38.1, 118
38.11, 112
38.12, 119
38.13, 109
38.14, 118
38.15, 96
38.16, 137
38.17, 111
38.18, 124
38.19, 134
38.2, 126
38.21, 114
38.22, 107
38.23, 122
38.24, 107
38.25, 112
38.26, 118
38.27, 108
38.28, 115
38.29, 115
38.3, 110
38.31, 124
38.32, 111
38.33, 117
38.34, 134
38.35, 119
38.36, 112
38.37, 109
38.38, 105
38.39, 126
38.4, 123
38.41, 118
38.42, 130
38.43, 122
38.44, 122
38.45, 125
38.46, 133
38.47, 132
38.48, 115
38.49, 99
38.5, 107
38.51, 100
38.52, 129
38.53, 114
38.54, 106
38.55, 106
38.56, 116
38.57, 135
38.58, 118
38.59, 88
38.6, 101
38.61, 108
38.62, 124
38.63, 103
38.64, 104
38.65, 110
38.66, 93
38.67, 112
38.68, 118
38.69, 110
38.7, 114
38.71, 119
38.72, 117
38.73, 106
38.74, 99
38.75, 111
38.76, 115
38.77, 112
38.78, 127
38.79, 114
38.8, 123
38.81, 116
38.82, 105
38.83, 114
38.84, 116
38.85, 120
38.86, 123
38.87, 99
38.88, 113
38.89, 105
38.9, 124
38.91, 113
38.92, 104
38.93, 112
38.94, 129
38.95, 84
38.96, 114
38.97, 118
38.98, 89
38.99, 122
39, 111
39.01, 118
39.02, 119
39.03, 115
39.04, 126
39.05, 129
39.06, 114
39.07, 103
39.08, 123
39.09, 112
39.1, 100
39.11, 117
39.12, 112
39.13, 119
39.14, 115
39.15, 123
39.16, 113
39.17, 107
39.18, 107
39.19, 114
39.2, 101
39.21, 111
39.22, 109
39.23, 102
39.24, 119
39.25, 104
39.26, 118
39.27, 111
39.28, 114
39.29, 106
39.3, 108
39.31, 115
39.32, 115
39.33, 88
39.34, 106
39.35, 110
39.36, 116
39.37, 116
39.38, 87
39.39, 114
39.4, 120
39.41, 101
39.42, 108
39.43, 111
39.44, 113
39.45, 118
39.46, 140
39.47, 112
39.48, 109
39.49, 103
39.5, 106
39.51, 115
39.52, 115
39.53, 111
39.54, 99
39.55, 105
39.56, 124
39.57, 107
39.58, 101
39.59, 115
39.6, 137
39.61, 117
39.62, 128
39.63, 131
39.64, 109
39.65, 103
39.66, 107
39.67, 116
39.68, 142
39.69, 108
39.7, 114
39.71, 126
39.72, 124
39.73, 107
39.74, 129
39.75, 112
39.76, 104
39.77, 101
39.78, 100
39.79, 109
39.8, 121
39.81, 118
39.82, 111
39.83, 106
39.84, 109
39.85, 112
39.86, 129
39.87, 115
39.88, 124
39.89, 94
39.9, 111
39.91, 109
39.92, 111
39.93, 106
39.94, 124
39.95, 124
39.96, 97
39.97, 112
39.98, 114
39.99, 121
40, 107
40.01, 106
40.02, 95
40.03, 119
40.04, 103
40.05, 120
40.06, 124
40.07, 124
40.08, 115
40.09, 134
40.1, 127
40.11, 126
40.12, 108
40.13, 118
40.14, 97
40.15, 114
40.16, 128
40.17, 97
40.18, 123
40.19, 117
40.2, 128
40.21, 105
40.22, 114
40.23, 116
40.24, 109
40.25, 116
40.26, 112
40.27, 107
40.28, 107
40.29, 107
40.3, 99
40.31, 102
40.32, 94
40.33, 113
40.34, 108
40.35, 108
40.36, 109
40.37, 113
40.38, 105
40.39, 123
40.4, 92
40.41, 104
40.42, 114
40.43, 113
40.44, 107
40.45, 104
40.46, 112
40.47, 102
40.48, 99
40.49, 95
40.5, 108
40.51, 101
40.52, 110
40.53, 104
40.54, 109
40.55, 113
40.56, 107
40.57, 96
40.58, 91
40.59, 111
40.6, 96
40.61, 127
40.62, 116
40.63, 112
40.64, 106
40.65, 116
40.66, 114
40.67, 115
40.68, 117
40.69, 118
40.7, 104
40.71, 122
40.72, 113
40.73, 109
40.74, 98
40.75, 117
40.76, 102
40.77, 102
40.78, 102
40.79, 107
40.8, 116
40.81, 107
40.82, 125
40.83, 116
40.84, 96
40.85, 102
40.86, 117
40.87, 108
40.88, 123
40.89, 116
40.9, 129
40.91, 108
40.92, 117
40.93, 115
40.94, 117
40.95, 109
40.96, 105
40.97, 99
40.98, 127
40.99, 118
41, 124
41.01, 124
41.02, 106
41.03, 138
41.04, 148
41.05, 115
41.06, 114
41.07, 117
41.08, 97
41.09, 121
41.1, 102
41.11, 94
41.12, 120
41.13, 107
41.14, 106
41.15, 93
41.16, 106
41.17, 121
41.18, 114
41.19, 112
41.2, 110
41.21, 124
41.22, 120
41.23, 120
41.24, 93
41.25, 110
41.26, 102
41.27, 114
41.28, 108
41.29, 121
41.3, 103
41.31, 98
41.32, 99
41.33, 108
41.34, 125
41.35, 110
41.36, 106
41.37, 118
41.38, 111
41.39, 110
41.4, 108
41.41, 113
41.42, 111
41.43, 104
41.44, 86
41.45, 129
41.46, 105
41.47, 110
41.48, 122
41.49, 109
41.5, 122
41.51, 111
41.52, 112
41.53, 131
41.54, 109
41.55, 103
41.56, 116
41.57, 96
41.58, 108
41.59, 114
41.6, 104
41.61, 108
41.62, 108
41.63, 103
41.64, 97
41.65, 107
41.66, 117
41.67, 108
41.68, 109
41.69, 112
41.7, 112
41.71, 103
41.72, 119
41.73, 108
41.74, 107
41.75, 107
41.76, 108
41.77, 104
41.78, 116
41.79, 111
41.8, 97
41.81, 104
41.82, 94
41.83, 106
41.84, 114
41.85, 110
41.86, 109
41.87, 111
41.88, 106
41.89, 120
41.9, 106
41.91, 98
41.92, 107
41.93, 128
41.94, 105
41.95, 128
41.96, 98
41.97, 111
41.98, 124
41.99, 138
42, 96
42.01, 113
42.02, 108
42.03, 108
42.04, 105
42.05, 113
42.06, 101
42.07, 105
42.08, 128
42.09, 113
42.1, 140
42.11, 117
42.12, 118
42.13, 107
42.14, 103
42.15, 94
42.16, 104
42.17, 124
42.18, 102
42.19, 113
42.2, 90
42.21, 110
42.22, 107
42.23, 113
42.24, 105
42.25, 109
42.26, 97
42.27, 99
42.28, 90
42.29, 112
42.3, 117
42.31, 129
42.32, 116
42.33, 117
42.34, 127
42.35, 105
42.36, 109
42.37, 98
42.38, 112
42.39, 112
42.4, 119
42.41, 107
42.42, 105
42.43, 99
42.44, 111
42.45, 106
42.46, 111
42.47, 89
42.48, 102
42.49, 109
42.5, 117
42.51, 120
42.52, 116
42.53, 104
42.54, 101
42.55, 112
42.56, 105
42.57, 115
42.58, 102
42.59, 106
42.6, 105
42.61, 105
42.62, 103
42.63, 98
42.64, 116
42.65, 113
42.66, 98
42.67, 110
42.68, 126
42.69, 99
42.7, 117
42.71, 120
42.72, 127
42.73, 105
42.74, 117
42.75, 112
42.76, 108
42.77, 110
42.78, 99
42.79, 104
42.8, 118
42.81, 105
42.82, 120
42.83, 107
42.84, 103
42.85, 104
42.86, 123
42.87, 108
42.88, 108
42.89, 96
42.9, 89
42.91, 138
42.92, 112
42.93, 124
42.94, 110
42.95, 95
42.96, 106
42.97, 115
42.98, 121
42.99, 100
43, 117
43.01, 122
43.02, 91
43.03, 95
43.04, 110
43.05, 121
43.06, 113
43.07, 109
43.08, 121
43.09, 129
43.1, 122
43.11, 118
43.12, 111
43.13, 112
43.14, 98
43.15, 96
43.16, 113
43.17, 108
43.18, 115
43.19, 93
43.2, 116
43.21, 109
43.22, 107
43.23, 113
43.24, 109
43.25, 134
43.26, 106
43.27, 128
43.28, 125
43.29, 116
43.3, 121
43.31, 134
43.32, 123
43.33, 122
43.34, 141
43.35, 108
43.36, 124
43.37, 145
43.38, 118
43.39, 115
43.4, 127
43.41, 130
43.42, 135
43.43, 135
43.44, 131
43.45, 116
43.46, 137
43.47, 117
43.48, 115
43.49, 117
43.5, 100
43.51, 105
43.52, 108
43.53, 95
43.54, 122
43.55, 113
43.56, 117
43.57, 117
43.58, 112
43.59, 125
43.6, 131
43.61, 128
43.62, 109
43.63, 132
43.64, 117
43.65, 99
43.66, 114
43.67, 108
43.68, 122
43.69, 122
43.7, 131
43.71, 110
43.72, 100
43.73, 120
43.74, 104
43.75, 109
43.76, 120
43.77, 123
43.78, 106
43.79, 93
43.8, 116
43.81, 134
43.82, 110
43.83, 119
43.84, 115
43.85, 119
43.86, 118
43.87, 106
43.88, 123
43.89, 115
43.9, 101
43.91, 118
43.92, 104
43.93, 110
43.94, 126
43.95, 94
43.96, 105
43.97, 100
43.98, 113
43.99, 115
44, 101
44.01, 121
44.02, 117
44.03, 111
44.04, 115
44.05, 115
44.06, 126
44.07, 119
44.08, 112
44.09, 110
44.1, 107
44.11, 120
44.12, 107
44.13, 122
44.14, 110
44.15, 122
44.16, 128
44.17, 127
44.18, 118
44.19, 119
44.2, 130
44.21, 118
44.22, 117
44.23, 126
44.24, 105
44.25, 126
44.26, 126
44.27, 132
44.28, 130
44.29, 124
44.3, 122
44.31, 120
44.32, 101
44.33, 137
44.34, 136
44.35, 127
44.36, 125
44.37, 140
44.38, 122
44.39, 129
44.4, 135
44.41, 137
44.42, 165
44.43, 150
44.44, 153
44.45, 131
44.46, 146
44.47, 158
44.48, 179
44.49, 161
44.5, 202
44.51, 234
44.52, 273
44.53, 336
44.54, 426
44.55, 552
44.56, 649
44.57, 639
44.58, 550
44.59, 402
44.6, 342
44.61, 253
44.62, 256
44.63, 222
44.64, 227
44.65, 269
44.66, 345
44.67, 385
44.68, 387
44.69, 397
44.7, 322
44.71, 273
44.72, 213
44.73, 193
44.74, 170
44.75, 149
44.76, 145
44.77, 145
44.78, 135
44.79, 137
44.8, 127
44.81, 135
44.82, 143
44.83, 114
44.84, 114
44.85, 127
44.86, 124
44.87, 117
44.88, 133
44.89, 120
44.9, 117
44.91, 131
44.92, 123
44.93, 99
44.94, 131
44.95, 115
44.96, 105
44.97, 118
44.98, 126
44.99, 122
45, 122
45.01, 129
45.02, 117
45.03, 139
45.04, 124
45.05, 120
45.06, 117
45.07, 113
45.08, 120
45.09, 108
45.1, 115
45.11, 99
45.12, 120
45.13, 95
45.14, 117
45.15, 126
45.16, 126
45.17, 111
45.18, 109
45.19, 120
45.2, 118
45.21, 104
45.22, 107
45.23, 114
45.24, 106
45.25, 120
45.26, 112
45.27, 97
45.28, 106
45.29, 91
45.3, 118
45.31, 104
45.32, 136
45.33, 105
45.34, 99
45.35, 129
45.36, 120
45.37, 120
45.38, 104
45.39, 111
45.4, 101
45.41, 103
45.42, 126
45.43, 103
45.44, 111
45.45, 111
45.46, 107
45.47, 108
45.48, 109
45.49, 114
45.5, 104
45.51, 110
45.52, 105
45.53, 98
45.54, 109
45.55, 115
45.56, 100
45.57, 111
45.58, 105
45.59, 99
45.6, 106
45.61, 114
45.62, 96
45.63, 100
45.64, 104
45.65, 122
45.66, 114
45.67, 115
45.68, 110
45.69, 118
45.7, 117
45.71, 112
45.72, 119
45.73, 114
45.74, 119
45.75, 95
45.76, 115
45.77, 120
45.78, 114
45.79, 123
45.8, 117
45.81, 117
45.82, 102
45.83, 119
45.84, 114
45.85, 99
45.86, 110
45.87, 103
45.88, 88
45.89, 114
45.9, 114
45.91, 122
45.92, 127
45.93, 117
45.94, 113
45.95, 95
45.96, 109
45.97, 89
45.98, 118
45.99, 110
46, 125
46.01, 115
46.02, 111
46.03, 111
46.04, 101
46.05, 122
46.06, 102
46.07, 88
46.08, 116
46.09, 107
46.1, 97
46.11, 127
46.12, 120
46.13, 104
46.14, 98
46.15, 100
46.16, 112
46.17, 99
46.18, 128
46.19, 122
46.2, 105
46.21, 111
46.22, 128
46.23, 82
46.24, 101
46.25, 107
46.26, 117
46.27, 138
46.28, 84
46.29, 110
46.3, 113
46.31, 143
46.32, 96
46.33, 101
46.34, 128
46.35, 118
46.36, 135
46.37, 101
46.38, 108
46.39, 96
46.4, 110
46.41, 118
46.42, 78
46.43, 119
46.44, 134
46.45, 104
46.46, 118
46.47, 104
46.48, 124
46.49, 106
46.5, 93
46.51, 132
46.52, 105
46.53, 113
46.54, 107
46.55, 106
46.56, 119
46.57, 96
46.58, 108
46.59, 108
46.6, 125
46.61, 98
46.62, 115
46.63, 115
46.64, 106
46.65, 107
46.66, 94
46.67, 111
46.68, 111
46.69, 105
46.7, 92
46.71, 113
46.72, 106
46.73, 91
46.74, 117
46.75, 84
46.76, 99
46.77, 109
46.78, 116
46.79, 101
46.8, 109
46.81, 96
46.82, 114
46.83, 101
46.84, 96
46.85, 105
46.86, 110
46.87, 110
46.88, 90
46.89, 104
46.9, 107
46.91, 103
46.92, 115
46.93, 95
46.94, 105
46.95, 105
46.96, 102
46.97, 103
46.98, 112
46.99, 125
47, 98
47.01, 119
47.02, 98
47.03, 113
47.04, 112
47.05, 82
47.06, 113
47.07, 135
47.08, 94
47.09, 116
47.1, 113
47.11, 133
47.12, 102
47.13, 99
47.14, 110
47.15, 98
47.16, 102
47.17, 117
47.18, 113
47.19, 116
47.2, 110
47.21, 109
47.22, 104
47.23, 99
47.24, 91
47.25, 113
47.26, 123
47.27, 125
47.28, 110
47.29, 115
47.3, 102
47.31, 130
47.32, 107
47.33, 118
47.34, 113
47.35, 94
47.36, 131
47.37, 121
47.38, 121
47.39, 111
47.4, 101
47.41, 87
47.42, 120
47.43, 89
47.44, 121
47.45, 112
47.46, 112
47.47, 121
47.48, 92
47.49, 109
47.5, 111
47.51, 108
47.52, 113
47.53, 117
47.54, 107
47.55, 115
47.56, 112
47.57, 108
47.58, 105
47.59, 95
47.6, 112
47.61, 91
47.62, 107
47.63, 112
47.64, 104
47.65, 103
47.66, 114
47.67, 115
47.68, 104
47.69, 129
47.7, 83
47.71, 113
47.72, 104
47.73, 105
47.74, 101
47.75, 116
47.76, 102
47.77, 118
47.78, 103
47.79, 105
47.8, 104
47.81, 114
47.82, 91
47.83, 107
47.84, 96
47.85, 106
47.86, 101
47.87, 117
47.88, 110
47.89, 108
47.9, 108
47.91, 111
47.92, 88
47.93, 111
47.94, 101
47.95, 105
47.96, 112
47.97, 113
47.98, 113
47.99, 112
48, 117
48.01, 130
48.02, 108
48.03, 121
48.04, 115
48.05, 114
48.06, 106
48.07, 114
48.08, 105
48.09, 97
48.1, 91
48.11, 124
48.12, 119
48.13, 102
48.14, 109
48.15, 106
48.16, 89
48.17, 109
48.18, 110
48.19, 106
48.2, 120
48.21, 102
48.22, 89
48.23, 107
48.24, 115
48.25, 107
48.26, 95
48.27, 102
48.28, 101
48.29, 111
48.3, 102
48.31, 107
48.32, 104
48.33, 103
48.34, 98
48.35, 105
48.36, 120
48.37, 120
48.38, 115
48.39, 103
48.4, 91
48.41, 103
48.42, 126
48.43, 119
48.44, 87
48.45, 116
48.46, 125
48.47, 111
48.48, 125
48.49, 93
48.5, 108
48.51, 118
48.52, 95
48.53, 114
48.54, 117
48.55, 122
48.56, 111
48.57, 97
48.58, 98
48.59, 134
48.6, 105
48.61, 109
48.62, 107
48.63, 118
48.64, 92
48.65, 121
48.66, 114
48.67, 101
48.68, 102
48.69, 94
48.7, 112
48.71, 124
48.72, 98
48.73, 97
48.74, 110
48.75, 96
48.76, 109
48.77, 121
48.78, 117
48.79, 121
48.8, 109
48.81, 113
48.82, 96
48.83, 109
48.84, 103
48.85, 90
48.86, 106
48.87, 103
48.88, 114
48.89, 114
48.9, 111
48.91, 103
48.92, 99
48.93, 119
48.94, 121
48.95, 109
48.96, 109
48.97, 114
48.98, 110
48.99, 128
49, 110
49.01, 105
49.02, 118
49.03, 118
49.04, 114
49.05, 114
49.06, 109
49.07, 112
49.08, 117
49.09, 108
49.1, 93
49.11, 103
49.12, 119
49.13, 87
49.14, 117
49.15, 106
49.16, 103
49.17, 102
49.18, 113
49.19, 109
49.2, 99
49.21, 99
49.22, 108
49.23, 127
49.24, 107
49.25, 101
49.26, 114
49.27, 108
49.28, 101
49.29, 100
49.3, 109
49.31, 105
49.32, 114
49.33, 112
49.34, 111
49.35, 109
49.36, 105
49.37, 100
49.38, 111
49.39, 122
49.4, 107
49.41, 90
49.42, 103
49.43, 109
49.44, 106
49.45, 121
49.46, 107
49.47, 107
49.48, 103
49.49, 110
49.5, 107
49.51, 108
49.52, 102
49.53, 104
49.54, 106
49.55, 103
49.56, 112
49.57, 106
49.58, 89
49.59, 102
49.6, 115
49.61, 106
49.62, 113
49.63, 121
49.64, 111
49.65, 136
49.66, 97
49.67, 102
49.68, 91
49.69, 116
49.7, 104
49.71, 98
49.72, 101
49.73, 114
49.74, 105
49.75, 101
49.76, 95
49.77, 112
49.78, 106
49.79, 128
49.8, 96
49.81, 116
49.82, 126
49.83, 110
49.84, 104
49.85, 113
49.86, 112
49.87, 117
49.88, 100
49.89, 125
49.9, 109
49.91, 92
49.92, 107
49.93, 118
49.94, 113
49.95, 100
49.96, 102
49.97, 95
49.98, 111
49.99, 100
50, 107
50.01, 97
50.02, 109
50.03, 95
50.04, 130
50.05, 115
50.06, 82
50.07, 117
50.08, 105
50.09, 86
50.1, 103
50.11, 102
50.12, 99
50.13, 133
50.14, 100
50.15, 90
50.16, 89
50.17, 118
50.18, 116
50.19, 115
50.2, 118
50.21, 101
50.22, 92
50.23, 112
50.24, 109
50.25, 112
50.26, 103
50.27, 118
50.28, 102
50.29, 108
50.3, 108
50.31, 109
50.32, 118
50.33, 93
50.34, 89
50.35, 109
50.36, 103
50.37, 97
50.38, 99
50.39, 112
50.4, 113
50.41, 103
50.42, 111
50.43, 84
50.44, 105
50.45, 121
50.46, 98
50.47, 90
50.48, 110
50.49, 121
50.5, 98
50.51, 106
50.52, 107
50.53, 116
50.54, 100
50.55, 102
50.56, 120
50.57, 98
50.58, 104
50.59, 89
50.6, 120
50.61, 112
50.62, 102
50.63, 93
50.64, 100
50.65, 79
50.66, 104
50.67, 96
50.68, 116
50.69, 87
50.7, 90
50.71, 115
50.72, 96
50.73, 88
50.74, 112
50.75, 93
50.76, 99
50.77, 104
50.78, 116
50.79, 97
50.8, 91
50.81, 99
50.82, 124
50.83, 104
50.84, 106
50.85, 98
50.86, 123
50.87, 116
50.88, 113
50.89, 121
50.9, 109
50.91, 118
50.92, 109
50.93, 97
50.94, 106
50.95, 98
50.96, 105
50.97, 105
50.98, 92
50.99, 105
51, 98
51.01, 94
51.02, 90
51.03, 112
51.04, 83
51.05, 105
51.06, 111
51.07, 104
51.08, 112
51.09, 106
51.1, 115
51.11, 95
51.12, 105
51.13, 104
51.14, 109
51.15, 118
51.16, 109
51.17, 85
51.18, 106
51.19, 108
51.2, 95
51.21, 105
51.22, 112
51.23, 100
51.24, 100
51.25, 106
51.26, 109
51.27, 109
51.28, 97
51.29, 107
51.3, 121
51.31, 106
51.32, 123
51.33, 116
51.34, 108
51.35, 99
51.36, 111
51.37, 118
51.38, 109
51.39, 104
51.4, 105
51.41, 124
51.42, 104
51.43, 111
51.44, 123
51.45, 94
51.46, 118
51.47, 108
51.48, 115
51.49, 94
51.5, 88
51.51, 100
51.52, 100
51.53, 121
51.54, 78
51.55, 97
51.56, 95
51.57, 106
51.58, 128
51.59, 115
51.6, 104
51.61, 108
51.62, 106
51.63, 119
51.64, 97
51.65, 86
51.66, 103
51.67, 126
51.68, 105
51.69, 132
51.7, 114
51.71, 97
51.72, 121
51.73, 116
51.74, 131
51.75, 115
51.76, 127
51.77, 91
51.78, 99
51.79, 104
51.8, 94
51.81, 125
51.82, 78
51.83, 83
51.84, 103
51.85, 116
51.86, 102
51.87, 91
51.88, 105
51.89, 109
51.9, 98
51.91, 97
51.92, 110
51.93, 109
51.94, 119
51.95, 98
51.96, 91
51.97, 98
51.98, 97
51.99, 101
52, 97
52.01, 127
52.02, 105
52.03, 116
52.04, 126
52.05, 104
52.06, 98
52.07, 105
52.08, 95
52.09, 103
52.1, 110
52.11, 102
52.12, 95
52.13, 87
52.14, 125
52.15, 108
52.16, 117
52.17, 83
52.18, 107
52.19, 106
52.2, 96
52.21, 112
52.22, 109
52.23, 109
52.24, 114
52.25, 116
52.26, 104
52.27, 105
52.28, 95
52.29, 103
52.3, 91
52.31, 103
52.32, 109
52.33, 114
52.34, 88
52.35, 117
52.36, 103
52.37, 114
52.38, 113
52.39, 104
52.4, 104
52.41, 110
52.42, 88
52.43, 126
52.44, 110
52.45, 90
52.46, 98
52.47, 105
52.48, 89
52.49, 117
52.5, 114
52.51, 120
52.52, 106
52.53, 95
52.54, 109
52.55, 112
52.56, 113
52.57, 127
52.58, 111
52.59, 130
52.6, 109
52.61, 115
52.62, 100
52.63, 114
52.64, 102
52.65, 112
52.66, 98
52.67, 94
52.68, 106
52.69, 109
52.7, 106
52.71, 110
52.72, 106
52.73, 80
52.74, 116
52.75, 115
52.76, 106
52.77, 110
52.78, 99
52.79, 126
52.8, 122
52.81, 100
52.82, 101
52.83, 120
52.84, 101
52.85, 102
52.86, 97
52.87, 88
52.88, 112
52.89, 96
52.9, 103
52.91, 95
52.92, 99
52.93, 124
52.94, 123
52.95, 100
52.96, 125
52.97, 110
52.98, 113
52.99, 99
53, 114
53.01, 103
53.02, 100
53.03, 84
53.04, 110
53.05, 91
53.06, 107
53.07, 102
53.08, 109
53.09, 92
53.1, 91
53.11, 115
53.12, 96
53.13, 91
53.14, 94
53.15, 112
53.16, 105
53.17, 104
53.18, 114
53.19, 101
53.2, 95
53.21, 115
53.22, 91
53.23, 94
53.24, 120
53.25, 85
53.26, 105
53.27, 117
53.28, 138
53.29, 109
53.3, 106
53.31, 109
53.32, 120
53.33, 98
53.34, 100
53.35, 103
53.36, 100
53.37, 119
53.38, 122
53.39, 120
53.4, 113
53.41, 102
53.42, 96
53.43, 117
53.44, 94
53.45, 94
53.46, 98
53.47, 106
53.48, 103
53.49, 90
53.5, 114
53.51, 105
53.52, 100
53.53, 89
53.54, 114
53.55, 116
53.56, 121
53.57, 104
53.58, 94
53.59, 100
53.6, 117
53.61, 101
53.62, 86
53.63, 118
53.64, 90
53.65, 92
53.66, 108
53.67, 108
53.68, 112
53.69, 104
53.7, 107
53.71, 99
53.72, 116
53.73, 128
53.74, 99
53.75, 101
53.76, 97
53.77, 107
53.78, 107
53.79, 111
53.8, 106
53.81, 104
53.82, 96
53.83, 98
53.84, 102
53.85, 105
53.86, 101
53.87, 123
53.88, 116
53.89, 103
53.9, 90
53.91, 103
53.92, 111
53.93, 113
53.94, 93
53.95, 98
53.96, 103
53.97, 110
53.98, 102
53.99, 104
54, 118
54.01, 98
54.02, 100
54.03, 103
54.04, 111
54.05, 92
54.06, 124
54.07, 98
54.08, 94
54.09, 97
54.1, 106
54.11, 108
54.12, 110
54.13, 90
54.14, 109
54.15, 106
54.16, 92
54.17, 97
54.18, 103
54.19, 99
54.2, 99
54.21, 114
54.22, 104
54.23, 97
54.24, 96
54.25, 88
54.26, 114
54.27, 99
54.28, 104
54.29, 99
54.3, 99
54.31, 90
54.32, 100
54.33, 93
54.34, 113
54.35, 109
54.36, 110
54.37, 107
54.38, 106
54.39, 98
54.4, 109
54.41, 90
54.42, 91
54.43, 98
54.44, 116
54.45, 94
54.46, 88
54.47, 116
54.48, 105
54.49, 99
54.5, 112
54.51, 88
54.52, 98
54.53, 111
54.54, 99
54.55, 103
54.56, 96
54.57, 105
54.58, 99
54.59, 126
54.6, 99
54.61, 115
54.62, 116
54.63, 100
54.64, 94
54.65, 113
54.66, 92
54.67, 114
54.68, 101
54.69, 108
54.7, 114
54.71, 98
54.72, 102
54.73, 107
54.74, 109
54.75, 100
54.76, 106
54.77, 97
54.78, 90
54.79, 89
54.8, 92
54.81, 80
54.82, 113
54.83, 98
54.84, 93
54.85, 99
54.86, 112
54.87, 98
54.88, 101
54.89, 105
54.9, 89
54.91, 105
54.92, 104
54.93, 96
54.94, 94
54.95, 106
54.96, 98
54.97, 104
54.98, 116
54.99, 100
55, 97
55.01, 107
55.02, 118
55.03, 108
55.04, 105
55.05, 105
55.06, 112
55.07, 99
55.08, 84
55.09, 92
55.1, 97
55.11, 107
55.12, 106
55.13, 92
55.14, 127
55.15, 110
55.16, 123
55.17, 125
55.18, 109
55.19, 112
55.2, 120
55.21, 104
55.22, 130
55.23, 104
55.24, 128
55.25, 123
55.26, 113
55.27, 133
55.28, 128
55.29, 148
55.3, 139
55.31, 174
55.32, 205
55.33, 251
55.34, 220
55.35, 220
55.36, 167
55.37, 151
55.38, 135
55.39, 138
55.4, 122
55.41, 116
55.42, 124
55.43, 120
55.44, 143
55.45, 144
55.46, 194
55.47, 168
55.48, 171
55.49, 183
55.5, 156
55.51, 148
55.52, 125
55.53, 130
55.54, 94
55.55, 98
55.56, 124
55.57, 108
55.58, 121
55.59, 114
55.6, 98
55.61, 119
55.62, 112
55.63, 113
55.64, 117
55.65, 102
55.66, 127
55.67, 84
55.68, 132
55.69, 106
55.7, 115
55.71, 119
55.72, 124
55.73, 100
55.74, 94
55.75, 111
55.76, 98
55.77, 97
55.78, 115
55.79, 110
55.8, 103
55.81, 125
55.82, 100
55.83, 92
55.84, 101
55.85, 101
55.86, 111
55.87, 107
55.88, 117
55.89, 85
55.9, 95
55.91, 94
55.92, 100
55.93, 117
55.94, 97
55.95, 108
55.96, 115
55.97, 102
55.98, 117
55.99, 101
56, 90
56.01, 96
56.02, 90
56.03, 96
56.04, 107
56.05, 123
56.06, 107
56.07, 92
56.08, 100
56.09, 104
56.1, 106
56.11, 104
56.12, 103
56.13, 98
56.14, 104
56.15, 123
56.16, 103
56.17, 97
56.18, 98
56.19, 80
56.2, 103
56.21, 92
56.22, 102
56.23, 97
56.24, 110
56.25, 92
56.26, 113
56.27, 84
56.28, 109
56.29, 87
56.3, 113
56.31, 99
56.32, 121
56.33, 111
56.34, 87
56.35, 112
56.36, 104
56.37, 102
56.38, 104
56.39, 87
56.4, 97
56.41, 111
56.42, 107
56.43, 90
56.44, 118
56.45, 110
56.46, 105
56.47, 114
56.48, 98
56.49, 106
56.5, 101
56.51, 91
56.52, 111
56.53, 105
56.54, 101
56.55, 98
56.56, 107
56.57, 107
56.58, 95
56.59, 96
56.6, 99
56.61, 102
56.62, 103
56.63, 112
56.64, 94
56.65, 94
56.66, 101
56.67, 115
56.68, 104
56.69, 88
56.7, 100
56.71, 125
56.72, 111
56.73, 100
56.74, 103
56.75, 100
56.76, 121
56.77, 106
56.78, 103
56.79, 104
56.8, 109
56.81, 89
56.82, 95
56.83, 125
56.84, 105
56.85, 112
56.86, 96
56.87, 86
56.88, 98
56.89, 102
56.9, 109
56.91, 128
56.92, 90
56.93, 74
56.94, 109
56.95, 91
56.96, 118
56.97, 105
56.98, 111
56.99, 113
57, 98
57.01, 114
57.02, 89
57.03, 103
57.04, 121
57.05, 104
57.06, 121
57.07, 102
57.08, 119
57.09, 105
57.1, 95
57.11, 113
57.12, 119
57.13, 100
57.14, 103
57.15, 100
57.16, 97
57.17, 106
57.18, 93
57.19, 93
57.2, 105
57.21, 109
57.22, 113
57.23, 124
57.24, 110
57.25, 123
57.26, 112
57.27, 112
57.28, 98
57.29, 103
57.3, 126
57.31, 119
57.32, 97
57.33, 128
57.34, 107
57.35, 123
57.36, 111
57.37, 102
57.38, 101
57.39, 113
57.4, 111
57.41, 117
57.42, 117
57.43, 128
57.44, 118
57.45, 99
57.46, 91
57.47, 105
57.48, 114
57.49, 102
57.5, 104
57.51, 125
57.52, 140
57.53, 118
57.54, 104
57.55, 110
57.56, 124
57.57, 111
57.58, 132
57.59, 94
57.6, 101
57.61, 119
57.62, 106
57.63, 104
57.64, 88
57.65, 112
57.66, 100
57.67, 105
57.68, 103
57.69, 118
57.7, 97
57.71, 116
57.72, 116
57.73, 108
57.74, 106
57.75, 107
57.76, 101
57.77, 106
57.78, 104
57.79, 116
57.8, 129
57.81, 96
57.82, 115
57.83, 112
57.84, 111
57.85, 88
57.86, 111
57.87, 97
57.88, 123
57.89, 118
57.9, 103
57.91, 116
57.92, 96
57.93, 112
57.94, 86
57.95, 93
57.96, 92
57.97, 106
57.98, 113
57.99, 123
58, 107
58.01, 111
58.02, 110
58.03, 112
58.04, 104
58.05, 103
58.06, 104
58.07, 96
58.08, 107
58.09, 118
58.1, 112
58.11, 85
58.12, 105
58.13, 93
58.14, 109
58.15, 126
58.16, 91
58.17, 102
58.18, 115
58.19, 114
58.2, 119
58.21, 107
58.22, 88
58.23, 106
58.24, 106
58.25, 104
58.26, 93
58.27, 98
58.28, 97
58.29, 105
58.3, 102
58.31, 116
58.32, 95
58.33, 102
58.34, 100
58.35, 108
58.36, 94
58.37, 89
58.38, 99
58.39, 103
58.4, 121
58.41, 100
58.42, 105
58.43, 109
58.44, 109
58.45, 103
58.46, 113
58.47, 105
58.48, 99
58.49, 114
58.5, 106
58.51, 123
58.52, 112
58.53, 95
58.54, 94
58.55, 115
58.56, 105
58.57, 112
58.58, 119
58.59, 97
58.6, 99
58.61, 104
58.62, 112
58.63, 106
58.64, 125
58.65, 111
58.66, 117
58.67, 124
58.68, 113
58.69, 107
58.7, 121
58.71, 109
58.72, 101
58.73, 128
58.74, 118
58.75, 116
58.76, 125
58.77, 119
58.78, 123
58.79, 96
58.8, 128
58.81, 124
58.82, 118
58.83, 110
58.84, 114
58.85, 135
58.86, 146
58.87, 116
58.88, 162
58.89, 126
58.9, 130
58.91, 140
58.92, 157
58.93, 148
58.94, 184
58.95, 182
58.96, 249
58.97, 283
58.98, 388
58.99, 505
59, 592
59.01, 614
59.02, 525
59.03, 424
59.04, 310
59.05, 269
59.06, 227
59.07, 232
59.08, 193
59.09, 199
59.1, 192
59.11, 190
59.12, 217
59.13, 227
59.14, 265
59.15, 305
59.16, 339
59.17, 347
59.18, 335
59.19, 308
59.2, 221
59.21, 209
59.22, 172
59.23, 157
59.24, 143
59.25, 156
59.26, 124
59.27, 150
59.28, 124
59.29, 125
59.3, 117
59.31, 130
59.32, 123
59.33, 128
59.34, 109
59.35, 133
59.36, 125
59.37, 108
59.38, 112
59.39, 129
59.4, 94
59.41, 116
59.42, 92
59.43, 116
59.44, 100
59.45, 118
59.46, 117
59.47, 106
59.48, 99
59.49, 107
59.5, 113
59.51, 122
59.52, 115
59.53, 120
59.54, 114
59.55, 119
59.56, 99
59.57, 119
59.58, 107
59.59, 106
59.6, 107
59.61, 95
59.62, 93
59.63, 100
59.64, 120
59.65, 114
59.66, 115
59.67, 113
59.68, 107
59.69, 98
59.7, 108
59.71, 95
59.72, 106
59.73, 122
59.74, 95
59.75, 97
59.76, 102
59.77, 89
59.78, 107
59.79, 110
59.8, 89
59.81, 104
59.82, 103
59.83, 105
59.84, 105
59.85, 112
59.86, 100
59.87, 102
59.88, 111
59.89, 80
59.9, 103
59.91, 108
59.92, 122
59.93, 105
59.94, 107
59.95, 104
59.96, 96
59.97, 111
59.98, 107
59.99, 119
60, 105
60.01, 111
60.02, 125
60.03, 146
60.04, 110
60.05, 100
60.06, 104
60.07, 105
60.08, 100
60.09, 102
60.1, 98
60.11, 114
60.12, 93
60.13, 105
60.14, 100
60.15, 103
60.16, 110
60.17, 110
60.18, 89
60.19, 102
60.2, 99
60.21, 110
60.22, 106
60.23, 91
60.24, 94
60.25, 110
60.26, 75
60.27, 112
60.28, 100
60.29, 114
60.3, 85
60.31, 98
60.32, 97
60.33, 107
60.34, 103
60.35, 123
60.36, 101
60.37, 115
60.38, 102
60.39, 120
60.4, 103
60.41, 95
60.42, 97
60.43, 97
60.44, 106
60.45, 103
60.46, 97
60.47, 115
60.48, 98
60.49, 99
60.5, 91
60.51, 94
60.52, 100
60.53, 111
60.54, 106
60.55, 97
60.56, 92
60.57, 109
60.58, 97
60.59, 87
60.6, 87
60.61, 88
60.62, 107
60.63, 86
60.64, 85
60.65, 99
60.66, 95
60.67, 92
60.68, 118
60.69, 80
60.7, 95
60.71, 117
60.72, 108
60.73, 104
60.74, 105
60.75, 101
60.76, 101
60.77, 92
60.78, 102
60.79, 106
60.8, 115
60.81, 112
60.82, 110
60.83, 111
60.84, 101
60.85, 104
60.86, 92
60.87, 91
60.88, 101
60.89, 104
60.9, 87
60.91, 100
60.92, 80
60.93, 104
60.94, 118
60.95, 97
60.96, 85
60.97, 118
60.98, 93
60.99, 115
61, 109
61.01, 109
61.02, 95
61.03, 106
61.04, 97
61.05, 98
61.06, 110
61.07, 88
61.08, 83
61.09, 95
61.1, 111
61.11, 91
61.12, 99
61.13, 114
61.14, 121
61.15, 104
61.16, 83
61.17, 94
61.18, 103
61.19, 105
61.2, 105
61.21, 100
61.22, 92
61.23, 102
61.24, 91
61.25, 105
61.26, 95
61.27, 111
61.28, 124
61.29, 106
61.3, 122
61.31, 107
61.32, 106
61.33, 100
61.34, 103
61.35, 107
61.36, 81
61.37, 88
61.38, 98
61.39, 107
61.4, 101
61.41, 97
61.42, 101
61.43, 97
61.44, 108
61.45, 106
61.46, 109
61.47, 110
61.48, 107
61.49, 99
61.5, 103
61.51, 107
61.52, 98
61.53, 96
61.54, 101
61.55, 105
61.56, 113
61.57, 107
61.58, 98
61.59, 116
61.6, 107
61.61, 98
61.62, 110
61.63, 96
61.64, 98
61.65, 77
61.66, 102
61.67, 100
61.68, 89
61.69, 97
61.7, 105
61.71, 118
61.72, 108
61.73, 119
61.74, 109
61.75, 105
61.76, 117
61.77, 102
61.78, 99
61.79, 106
61.8, 119
61.81, 98
61.82, 91
61.83, 111
61.84, 103
61.85, 103
61.86, 115
61.87, 105
61.88, 118
61.89, 107
61.9, 97
61.91, 110
61.92, 110
61.93, 105
61.94, 106
61.95, 89
61.96, 95
61.97, 108
61.98, 103
61.99, 102
62, 90
62.01, 98
62.02, 113
62.03, 106
62.04, 101
62.05, 97
62.06, 104
62.07, 100
62.08, 97
62.09, 102
62.1, 105
62.11, 114
62.12, 111
62.13, 101
62.14, 98
62.15, 84
62.16, 99
62.17, 85
62.18, 90
62.19, 104
62.2, 110
62.21, 95
62.22, 97
62.23, 108
62.24, 105
62.25, 93
62.26, 104
62.27, 89
62.28, 107
62.29, 105
62.3, 109
62.31, 94
62.32, 102
62.33, 93
62.34, 98
62.35, 105
62.36, 105
62.37, 92
62.38, 90
62.39, 80
62.4, 101
62.41, 112
62.42, 94
62.43, 81
62.44, 99
62.45, 113
62.46, 101
62.47, 100
62.48, 106
62.49, 117
62.5, 98
62.51, 108
62.52, 95
62.53, 89
62.54, 97
62.55, 111
62.56, 90
62.57, 91
62.58, 114
62.59, 111
62.6, 119
62.61, 111
62.62, 111
62.63, 98
62.64, 103
62.65, 94
62.66, 123
62.67, 109
62.68, 99
62.69, 105
62.7, 114
62.71, 93
62.72, 112
62.73, 97
62.74, 104
62.75, 95
62.76, 111
62.77, 99
62.78, 103
62.79, 107
62.8, 95
62.81, 102
62.82, 100
62.83, 105
62.84, 95
62.85, 111
62.86, 98
62.87, 108
62.88, 98
62.89, 98
62.9, 86
62.91, 102
62.92, 111
62.93, 105
62.94, 117
62.95, 102
62.96, 103
62.97, 114
62.98, 103
62.99, 101
63, 108
63.01, 124
63.02, 104
63.03, 109
63.04, 101
63.05, 101
63.06, 90
63.07, 108
63.08, 104
63.09, 107
63.1, 116
63.11, 109
63.12, 114
63.13, 85
63.14, 105
63.15, 95
63.16, 95
63.17, 90
63.18, 124
63.19, 87
63.2, 118
63.21, 115
63.22, 108
63.23, 104
63.24, 109
63.25, 97
63.26, 97
63.27, 114
63.28, 99
63.29, 102
63.3, 109
63.31, 101
63.32, 82
63.33, 103
63.34, 111
63.35, 123
63.36, 94
63.37, 108
63.38, 94
63.39, 91
63.4, 111
63.41, 103
63.42, 107
63.43, 103
63.44, 110
63.45, 110
63.46, 107
63.47, 114
63.48, 104
63.49, 111
63.5, 99
63.51, 100
63.52, 100
63.53, 88
63.54, 103
63.55, 111
63.56, 107
63.57, 105
63.58, 92
63.59, 86
63.6, 101
63.61, 104
63.62, 97
63.63, 97
63.64, 107
63.65, 95
63.66, 101
63.67, 100
63.68, 115
63.69, 91
63.7, 114
63.71, 117
63.72, 89
63.73, 91
63.74, 82
63.75, 101
63.76, 104
63.77, 117
63.78, 104
63.79, 101
63.8, 107
63.81, 89
63.82, 117
63.83, 109
63.84, 109
63.85, 87
63.86, 101
63.87, 81
63.88, 114
63.89, 96
63.9, 97
63.91, 109
63.92, 112
63.93, 95
63.94, 113
63.95, 94
63.96, 104
63.97, 85
63.98, 97
63.99, 117
64, 109
64.01, 101
64.02, 112
64.03, 89
64.04, 89
64.05, 120
64.06, 113
64.07, 101
64.08, 111
64.09, 113
64.1, 119
64.11, 107
64.12, 92
64.13, 87
64.14, 113
64.15, 108
64.16, 90
64.17, 109
64.18, 99
64.19, 106
64.2, 104
64.21, 121
64.22, 124
64.23, 118
64.24, 97
64.25, 108
64.26, 89
64.27, 111
64.28, 109
64.29, 96
64.3, 94
64.31, 90
64.32, 103
64.33, 102
64.34, 102
64.35, 108
64.36, 100
64.37, 118
64.38, 103
64.39, 111
64.4, 124
64.41, 110
64.42, 115
64.43, 111
64.44, 100
64.45, 120
64.46, 114
64.47, 103
64.48, 118
64.49, 99
64.5, 107
64.51, 103
64.52, 104
64.53, 115
64.54, 117
64.55, 134
64.56, 115
64.57, 137
64.58, 130
64.59, 132
64.6, 102
64.61, 101
64.62, 123
64.63, 135
64.64, 120
64.65, 121
64.66, 136
64.67, 117
64.68, 108
64.69, 123
64.7, 144
64.71, 135
64.72, 147
64.73, 153
64.74, 174
64.75, 166
64.76, 186
64.77, 203
64.78, 222
64.79, 263
64.8, 307
64.81, 361
64.82, 488
64.83, 587
64.84, 601
64.85, 555
64.86, 476
64.87, 366
64.88, 311
64.89, 266
64.9, 215
64.91, 199
64.92, 171
64.93, 185
64.94, 179
64.95, 223
64.96, 207
64.97, 232
64.98, 233
64.99, 250
65, 302
65.01, 351
65.02, 395
65.03, 333
65.04, 287
65.05, 241
65.06, 234
65.07, 172
65.08, 153
65.09, 166
65.1, 124
65.11, 151
65.12, 125
65.13, 130
65.14, 113
65.15, 130
65.16, 143
65.17, 99
65.18, 136
65.19, 121
65.2, 98
65.21, 129
65.22, 128
65.23, 115
65.24, 130
65.25, 100
65.26, 105
65.27, 95
65.28, 83
65.29, 113
65.3, 97
65.31, 119
65.32, 100
65.33, 118
65.34, 107
65.35, 104
65.36, 118
65.37, 131
65.38, 119
65.39, 116
65.4, 101
65.41, 110
65.42, 107
65.43, 83
65.44, 108
65.45, 118
65.46, 93
65.47, 122
65.48, 119
65.49, 100
65.5, 105
65.51, 116
65.52, 107
65.53, 99
65.54, 110
65.55, 117
65.56, 104
65.57, 122
65.58, 136
65.59, 98
65.6, 94
65.61, 111
65.62, 110
65.63, 99
65.64, 92
65.65, 102
65.66, 99
65.67, 99
65.68, 118
65.69, 96
65.7, 98
65.71, 101
65.72, 104
65.73, 111
65.74, 108
65.75, 90
65.76, 103
65.77, 106
65.78, 93
65.79, 94
65.8, 93
65.81, 97
65.82, 94
65.83, 95
65.84, 100
65.85, 86
65.86, 91
65.87, 91
65.88, 112
65.89, 118
65.9, 87
65.91, 95
65.92, 102
65.93, 90
65.94, 100
65.95, 98
65.96, 119
65.97, 117
65.98, 106
65.99, 112
66, 86
66.01, 100
66.02, 101
66.03, 109
66.04, 107
66.05, 127
66.06, 94
66.07, 118
66.08, 98
66.09, 96
66.1, 107
66.11, 97
66.12, 97
66.13, 93
66.14, 93
66.15, 88
66.16, 107
66.17, 127
66.18, 99
66.19, 111
66.2, 109
66.21, 124
66.22, 104
66.23, 105
66.24, 117
66.25, 97
66.26, 99
66.27, 103
66.28, 97
66.29, 89
66.3, 91
66.31, 98
66.32, 101
66.33, 110
66.34, 110
66.35, 106
66.36, 99
66.37, 89
66.38, 110
66.39, 94
66.4, 117
66.41, 119
66.42, 104
66.43, 120
66.44, 97
66.45, 110
66.46, 117
66.47, 111
66.48, 110
66.49, 88
66.5, 97
66.51, 109
66.52, 93
66.53, 96
66.54, 114
66.55, 114
66.56, 95
66.57, 117
66.58, 107
66.59, 85
66.6, 77
66.61, 101
66.62, 97
66.63, 100
66.64, 113
66.65, 98
66.66, 101
66.67, 82
66.68, 109
66.69, 105
66.7, 102
66.71, 113
66.72, 106
66.73, 112
66.74, 110
66.75, 91
66.76, 89
66.77, 81
66.78, 100
66.79, 83
66.8, 85
66.81, 99
66.82, 107
66.83, 103
66.84, 90
66.85, 92
66.86, 117
66.87, 112
66.88, 120
66.89, 117
66.9, 90
66.91, 80
66.92, 99
66.93, 123
66.94, 115
66.95, 112
66.96, 89
66.97, 99
66.98, 106
66.99, 107
67, 99
67.01, 103
67.02, 92
67.03, 89
67.04, 94
67.05, 101
67.06, 82
67.07, 111
67.08, 110
67.09, 97
67.1, 97
67.11, 104
67.12, 93
67.13, 87
67.14, 93
67.15, 102
67.16, 97
67.17, 86
67.18, 95
67.19, 97
67.2, 90
67.21, 93
67.22, 95
67.23, 103
67.24, 85
67.25, 88
67.26, 87
67.27, 83
67.28, 89
67.29, 97
67.3, 119
67.31, 103
67.32, 98
67.33, 85
67.34, 102
67.35, 105
67.36, 95
67.37, 84
67.38, 89
67.39, 95
67.4, 106
67.41, 88
67.42, 87
67.43, 100
67.44, 112
67.45, 94
67.46, 98
67.47, 74
67.48, 98
67.49, 112
67.5, 107
67.51, 97
67.52, 100
67.53, 91
67.54, 98
67.55, 100
67.56, 99
67.57, 102
67.58, 110
67.59, 91
67.6, 89
67.61, 101
67.62, 107
67.63, 98
67.64, 96
67.65, 103
67.66, 89
67.67, 102
67.68, 83
67.69, 87
67.7, 100
67.71, 80
67.72, 113
67.73, 84
67.74, 95
67.75, 82
67.76, 98
67.77, 116
67.78, 97
67.79, 96
67.8, 83
67.81, 101
67.82, 102
67.83, 88
67.84, 112
67.85, 91
67.86, 99
67.87, 94
67.88, 103
67.89, 95
67.9, 120
67.91, 97
67.92, 107
67.93, 86
67.94, 72
67.95, 95
67.96, 95
67.97, 110
67.98, 97
67.99, 95
68, 89
68.01, 94
68.02, 85
68.03, 118
68.04, 87
68.05, 101
68.06, 114
68.07, 89
68.08, 119
68.09, 105
68.1, 88
68.11, 105
68.12, 89
68.13, 96
68.14, 95
68.15, 91
68.16, 129
68.17, 106
68.18, 121
68.19, 116
68.2, 122
68.21, 93
68.22, 102
68.23, 106
68.24, 111
68.25, 109
68.26, 104
68.27, 92
68.28, 111
68.29, 97
68.3, 114
68.31, 109
68.32, 116
68.33, 102
68.34, 105
68.35, 96
68.36, 117
68.37, 104
68.38, 107
68.39, 105
68.4, 92
68.41, 87
68.42, 121
68.43, 101
68.44, 103
68.45, 106
68.46, 98
68.47, 86
68.48, 92
68.49, 77
68.5, 107
68.51, 95
68.52, 104
68.53, 83
68.54, 106
68.55, 92
68.56, 111
68.57, 106
68.58, 91
68.59, 100
68.6, 116
68.61, 96
68.62, 114
68.63, 100
68.64, 84
68.65, 99
68.66, 111
68.67, 112
68.68, 110
68.69, 113
68.7, 93
68.71, 112
68.72, 106
68.73, 86
68.74, 106
68.75, 89
68.76, 104
68.77, 99
68.78, 92
68.79, 85
68.8, 88
68.81, 110
68.82, 93
68.83, 94
68.84, 87
68.85, 86
68.86, 119
68.87, 90
68.88, 120
68.89, 105
68.9, 100
68.91, 116
68.92, 106
68.93, 92
68.94, 108
68.95, 107
68.96, 94
68.97, 109
68.98, 107
68.99, 106
69, 107
69.01, 91
69.02, 113
69.03, 82
69.04, 96
69.05, 92
69.06, 91
69.07, 100
69.08, 97
69.09, 98
69.1, 95
69.11, 101
69.12, 97
69.13, 91
69.14, 100
69.15, 87
69.16, 76
69.17, 108
69.18, 108
69.19, 100
69.2, 91
69.21, 97
69.22, 79
69.23, 102
69.24, 99
69.25, 109
69.26, 97
69.27, 108
69.28, 100
69.29, 92
69.3, 101
69.31, 101
69.32, 94
69.33, 92
69.34, 100
69.35, 95
69.36, 78
69.37, 93
69.38, 98
69.39, 110
69.4, 114
69.41, 95
69.42, 111
69.43, 105
69.44, 117
69.45, 91
69.46, 81
69.47, 104
69.48, 79
69.49, 97
69.5, 102
69.51, 115
69.52, 90
69.53, 100
69.54, 96
69.55, 73
69.56, 95
69.57, 88
69.58, 96
69.59, 103
69.6, 90
69.61, 97
69.62, 85
69.63, 92
69.64, 97
69.65, 85
69.66, 83
69.67, 99
69.68, 107
69.69, 108
69.7, 88
69.71, 102
69.72, 103
69.73, 93
69.74, 101
69.75, 110
69.76, 91
69.77, 94
69.78, 93
69.79, 105
69.8, 105
69.81, 77
69.82, 96
69.83, 82
69.84, 91
69.85, 116
69.86, 95
69.87, 99
69.88, 103
69.89, 87
69.9, 116
69.91, 90
69.92, 102
69.93, 107
69.94, 114
69.95, 92
69.96, 99
69.97, 96
69.98, 89
69.99, 81
70, 85
70.01, 80
70.02, 91
70.03, 86
70.04, 96
70.05, 103
70.06, 99
70.07, 93
70.08, 87
70.09, 103
70.1, 86
70.11, 94
70.12, 97
70.13, 76
70.14, 102
70.15, 109
70.16, 89
70.17, 104
70.18, 110
70.19, 100
70.2, 104
70.21, 96
70.22, 101
70.23, 116
70.24, 106
70.25, 102
70.26, 92
70.27, 109
70.28, 115
70.29, 95
70.3, 89
70.31, 92
70.32, 106
70.33, 86
70.34, 103
70.35, 102
70.36, 107
70.37, 102
70.38, 92
70.39, 73
70.4, 98
70.41, 108
70.42, 97
70.43, 103
70.44, 82
70.45, 106
70.46, 87
70.47, 99
70.48, 100
70.49, 97
70.5, 106
70.51, 98
70.52, 93
70.53, 109
70.54, 101
70.55, 95
70.56, 94
70.57, 107
70.58, 101
70.59, 81
70.6, 109
70.61, 113
70.62, 116
70.63, 115
70.64, 99
70.65, 96
70.66, 102
70.67, 97
70.68, 94
70.69, 101
70.7, 72
70.71, 93
70.72, 89
70.73, 85
70.74, 76
70.75, 90
70.76, 118
70.77, 99
70.78, 96
70.79, 99
70.8, 93
70.81, 97
70.82, 104
70.83, 105
70.84, 91
70.85, 72
70.86, 102
70.87, 88
70.88, 93
70.89, 95
70.9, 95
70.91, 94
70.92, 102
70.93, 100
70.94, 99
70.95, 111
70.96, 86
70.97, 93
70.98, 96
70.99, 112
71, 92
71.01, 76
71.02, 110
71.03, 81
71.04, 89
71.05, 90
71.06, 86
71.07, 88
71.08, 97
71.09, 95
71.1, 113
71.11, 102
71.12, 88
71.13, 103
71.14, 95
71.15, 107
71.16, 97
71.17, 100
71.18, 88
71.19, 96
71.2, 91
71.21, 74
71.22, 102
71.23, 91
71.24, 105
71.25, 100
71.26, 106
71.27, 100
71.28, 89
71.29, 103
71.3, 101
71.31, 95
71.32, 109
71.33, 105
71.34, 96
71.35, 93
71.36, 90
71.37, 81
71.38, 103
71.39, 93
71.4, 81
71.41, 95
71.42, 98
71.43, 84
71.44, 92
71.45, 109
71.46, 90
71.47, 106
71.48, 113
71.49, 91
71.5, 87
71.51, 86
71.52, 113
71.53, 99
71.54, 77
71.55, 94
71.56, 95
71.57, 98
71.58, 83
71.59, 95
71.6, 87
71.61, 99
71.62, 107
71.63, 107
71.64, 95
71.65, 105
71.66, 92
71.67, 105
71.68, 103
71.69, 88
71.7, 86
71.71, 100
71.72, 96
71.73, 89
71.74, 92
71.75, 99
71.76, 102
71.77, 93
71.78, 86
71.79, 104
71.8, 94
71.81, 76
71.82, 99
71.83, 96
71.84, 107
71.85, 98
71.86, 119
71.87, 87
71.88, 92
71.89, 98
71.9, 93
71.91, 74
71.92, 87
71.93, 105
71.94, 101
71.95, 82
71.96, 101
71.97, 105
71.98, 89
71.99, 81
72, 86
72.01, 107
72.02, 87
72.03, 100
72.04, 82
72.05, 110
72.06, 87
72.07, 97
72.08, 86
72.09, 97
72.1, 116
72.11, 109
72.12, 101
72.13, 101
72.14, 98
72.15, 88
72.16, 99
72.17, 95
72.18, 99
72.19, 111
72.2, 84
72.21, 103
72.22, 85
72.23, 107
72.24, 101
72.25, 98
72.26, 115
72.27, 84
72.28, 100
72.29, 106
72.3, 107
72.31, 112
72.32, 94
72.33, 99
72.34, 92
72.35, 101
72.36, 84
72.37, 97
72.38, 95
72.39, 86
72.4, 102
72.41, 105
72.42, 91
72.43, 97
72.44, 97
72.45, 110
72.46, 111
72.47, 101
72.48, 95
72.49, 101
72.5, 113
72.51, 95
72.52, 97
72.53, 111
72.54, 82
72.55, 99
72.56, 97
72.57, 98
72.58, 95
72.59, 103
72.6, 78
72.61, 100
72.62, 86
72.63, 89
72.64, 87
72.65, 87
72.66, 97
72.67, 100
72.68, 107
72.69, 105
72.7, 98
72.71, 80
72.72, 104
72.73, 84
72.74, 95
72.75, 80
72.76, 91
72.77, 94
72.78, 83
72.79, 101
72.8, 104
72.81, 90
72.82, 111
72.83, 98
72.84, 95
72.85, 92
72.86, 88
72.87, 104
72.88, 107
72.89, 86
72.9, 98
72.91, 115
72.92, 82
72.93, 81
72.94, 103
72.95, 94
72.96, 76
72.97, 101
72.98, 91
72.99, 97
73, 103
73.01, 97
73.02, 76
73.03, 109
73.04, 101
73.05, 76
73.06, 113
73.07, 85
73.08, 105
73.09, 98
73.1, 110
73.11, 88
73.12, 98
73.13, 100
73.14, 94
73.15, 102
73.16, 89
73.17, 85
73.18, 109
73.19, 112
73.2, 99
73.21, 94
73.22, 88
73.23, 108
73.24, 87
73.25, 93
73.26, 101
73.27, 96
73.28, 96
73.29, 93
73.3, 100
73.31, 75
73.32, 99
73.33, 93
73.34, 112
73.35, 107
73.36, 90
73.37, 91
73.38, 87
73.39, 100
73.4, 85
73.41, 95
73.42, 102
73.43, 109
73.44, 97
73.45, 119
73.46, 86
73.47, 90
73.48, 76
73.49, 87
73.5, 94
73.51, 118
73.52, 105
73.53, 114
73.54, 83
73.55, 102
73.56, 101
73.57, 104
73.58, 92
73.59, 95
73.6, 116
73.61, 99
73.62, 114
73.63, 109
73.64, 110
73.65, 142
73.66, 95
73.67, 114
73.68, 129
73.69, 111
73.7, 107
73.71, 102
73.72, 98
73.73, 111
73.74, 104
73.75, 83
73.76, 96
73.77, 96
73.78, 104
73.79, 114
73.8, 111
73.81, 106
73.82, 114
73.83, 102
73.84, 105
73.85, 105
73.86, 106
73.87, 110
73.88, 108
73.89, 91
73.9, 100
73.91, 94
73.92, 100
73.93, 103
73.94, 98
73.95, 104
73.96, 82
73.97, 90
73.98, 79
73.99, 95
74, 90
74.01, 95
74.02, 102
74.03, 92
74.04, 81
74.05, 105
74.06, 81
74.07, 101
74.08, 90
74.09, 87
74.1, 98
74.11, 90
74.12, 93
74.13, 104
74.14, 97
74.15, 99
74.16, 121
74.17, 93
74.18, 95
74.19, 119
74.2, 102
74.21, 82
74.22, 94
74.23, 85
74.24, 111
74.25, 99
74.26, 92
74.27, 86
74.28, 97
74.29, 90
74.3, 88
74.31, 112
74.32, 93
74.33, 105
74.34, 83
74.35, 116
74.36, 80
74.37, 104
74.38, 96
74.39, 94
74.4, 103
74.41, 90
74.42, 103
74.43, 73
74.44, 92
74.45, 85
74.46, 91
74.47, 109
74.48, 86
74.49, 77
74.5, 94
74.51, 105
74.52, 105
74.53, 114
74.54, 98
74.55, 104
74.56, 90
74.57, 108
74.58, 97
74.59, 92
74.6, 89
74.61, 89
74.62, 94
74.63, 86
74.64, 89
74.65, 102
74.66, 96
74.67, 78
74.68, 80
74.69, 92
74.7, 105
74.71, 106
74.72, 102
74.73, 94
74.74, 100
74.75, 107
74.76, 102
74.77, 93
74.78, 104
74.79, 109
74.8, 100
74.81, 97
74.82, 83
74.83, 93
74.84, 91
74.85, 106
74.86, 90
74.87, 86
74.88, 114
74.89, 90
74.9, 93
74.91, 100
74.92, 109
74.93, 108
74.94, 91
74.95, 95
74.96, 110
74.97, 91
74.98, 99
74.99, 98
75, 87
75.01, 85
75.02, 111
75.03, 109
75.04, 105
75.05, 97
75.06, 95
75.07, 84
75.08, 98
75.09, 96
75.1, 93
75.11, 99
75.12, 105
75.13, 87
75.14, 94
75.15, 93
75.16, 107
75.17, 103
75.18, 101
75.19, 100
75.2, 97
75.21, 97
75.22, 88
75.23, 89
75.24, 90
75.25, 91
75.26, 101
75.27, 90
75.28, 117
75.29, 97
75.3, 106
75.31, 95
75.32, 109
75.33, 113
75.34, 83
75.35, 99
75.36, 109
75.37, 92
75.38, 103
75.39, 100
75.4, 98
75.41, 92
75.42, 97
75.43, 83
75.44, 80
75.45, 120
75.46, 85
75.47, 112
75.48, 87
75.49, 98
75.5, 98
75.51, 90
75.52, 82
75.53, 82
75.54, 98
75.55, 68
75.56, 91
75.57, 90
75.58, 96
75.59, 101
75.6, 114
75.61, 99
75.62, 80
75.63, 86
75.64, 91
75.65, 101
75.66, 102
75.67, 85
75.68, 114
75.69, 114
75.7, 86
75.71, 88
75.72, 99
75.73, 95
75.74, 93
75.75, 103
75.76, 83
75.77, 87
75.78, 104
75.79, 100
75.8, 88
75.81, 84
75.82, 83
75.83, 106
75.84, 101
75.85, 98
75.86, 102
75.87, 103
75.88, 95
75.89, 88
75.9, 93
75.91, 99
75.92, 95
75.93, 93
75.94, 100
75.95, 79
75.96, 109
75.97, 92
75.98, 94
75.99, 115
76, 80
76.01, 70
76.02, 113
76.03, 99
76.04, 106
76.05, 88
76.06, 88
76.07, 99
76.08, 102
76.09, 114
76.1, 90
76.11, 100
76.12, 87
76.13, 94
76.14, 109
76.15, 88
76.16, 88
76.17, 94
76.18, 90
76.19, 93
76.2, 101
76.21, 85
76.22, 96
76.23, 95
76.24, 99
76.25, 72
76.26, 104
76.27, 92
76.28, 87
76.29, 83
76.3, 87
76.31, 110
76.32, 107
76.33, 91
76.34, 72
76.35, 99
76.36, 90
76.37, 97
76.38, 96
76.39, 98
76.4, 101
76.41, 99
76.42, 94
76.43, 92
76.44, 96
76.45, 87
76.46, 94
76.47, 90
76.48, 105
76.49, 98
76.5, 101
76.51, 96
76.52, 94
76.53, 107
76.54, 82
76.55, 114
76.56, 96
76.57, 118
76.58, 98
76.59, 83
76.6, 83
76.61, 100
76.62, 86
76.63, 91
76.64, 100
76.65, 81
76.66, 106
76.67, 91
76.68, 111
76.69, 99
76.7, 102
76.71, 122
76.72, 121
76.73, 102
76.74, 86
76.75, 98
76.76, 101
76.77, 119
76.78, 117
76.79, 121
76.8, 125
76.81, 138
76.82, 160
76.83, 148
76.84, 173
76.85, 168
76.86, 145
76.87, 129
76.88, 124
76.89, 124
76.9, 114
76.91, 116
76.92, 108
76.93, 109
76.94, 124
76.95, 105
76.96, 125
76.97, 101
76.98, 109
76.99, 113
77, 116
77.01, 117
77.02, 106
77.03, 107
77.04, 125
77.05, 127
77.06, 123
77.07, 103
77.08, 116
77.09, 116
77.1, 106
77.11, 115
77.12, 107
77.13, 114
77.14, 103
77.15, 101
77.16, 100
77.17, 88
77.18, 99
77.19, 110
77.2, 106
77.21, 103
77.22, 101
77.23, 96
77.24, 99
77.25, 86
77.26, 101
77.27, 87
77.28, 108
77.29, 99
77.3, 117
77.31, 102
77.32, 72
77.33, 88
77.34, 96
77.35, 94
77.36, 104
77.37, 100
77.38, 81
77.39, 91
77.4, 110
77.41, 106
77.42, 110
77.43, 85
77.44, 102
77.45, 98
77.46, 87
77.47, 97
77.48, 100
77.49, 86
77.5, 103
77.51, 84
77.52, 84
77.53, 89
77.54, 105
77.55, 99
77.56, 92
77.57, 91
77.58, 105
77.59, 89
77.6, 100
77.61, 88
77.62, 110
77.63, 93
77.64, 100
77.65, 95
77.66, 92
77.67, 98
77.68, 81
77.69, 88
77.7, 95
77.71, 94
77.72, 96
77.73, 89
77.74, 96
77.75, 98
77.76, 89
77.77, 95
77.78, 85
77.79, 90
77.8, 100
77.81, 87
77.82, 97
77.83, 92
77.84, 104
77.85, 99
77.86, 100
77.87, 105
77.88, 119
77.89, 102
77.9, 117
77.91, 109
77.92, 109
77.93, 94
77.94, 107
77.95, 109
77.96, 86
77.97, 91
77.98, 98
77.99, 83
78, 109
78.01, 77
78.02, 124
78.03, 100
78.04, 82
78.05, 103
78.06, 86
78.07, 101
78.08, 95
78.09, 94
78.1, 90
78.11, 97
78.12, 87
78.13, 89
78.14, 96
78.15, 114
78.16, 116
78.17, 79
78.18, 97
78.19, 105
78.2, 78
78.21, 89
78.22, 85
78.23, 115
78.24, 96
78.25, 114
78.26, 86
78.27, 82
78.28, 101
78.29, 89
78.3, 94
78.31, 101
78.32, 92
78.33, 100
78.34, 90
78.35, 100
78.36, 84
78.37, 90
78.38, 90
78.39, 95
78.4, 90
78.41, 89
78.42, 92
78.43, 80
78.44, 90
78.45, 82
78.46, 95
78.47, 97
78.48, 83
78.49, 84
78.5, 108
78.51, 106
78.52, 111
78.53, 86
78.54, 90
78.55, 85
78.56, 91
78.57, 84
78.58, 99
78.59, 92
78.6, 102
78.61, 102
78.62, 85
78.63, 77
78.64, 105
78.65, 94
78.66, 81
78.67, 90
78.68, 106
78.69, 81
78.7, 82
78.71, 107
78.72, 91
78.73, 89
78.74, 96
78.75, 101
78.76, 90
78.77, 97
78.78, 115
78.79, 89
78.8, 88
78.81, 95
78.82, 92
78.83, 104
78.84, 86
78.85, 95
78.86, 92
78.87, 75
78.88, 113
78.89, 75
78.9, 98
78.91, 99
78.92, 97
78.93, 86
78.94, 102
78.95, 94
78.96, 94
78.97, 81
78.98, 90
78.99, 100
79, 88
79.01, 86
79.02, 89
79.03, 107
79.04, 88
79.05, 117
79.06, 92
79.07, 92
79.08, 97
79.09, 100
79.1, 103
79.11, 100
79.12, 93
79.13, 90
79.14, 94
79.15, 91
79.16, 82
79.17, 87
79.18, 93
79.19, 103
79.2, 105
79.21, 98
79.22, 101
79.23, 101
79.24, 89
79.25, 98
79.26, 88
79.27, 80
79.28, 96
79.29, 86
79.3, 101
79.31, 95
79.32, 108
79.33, 76
79.34, 101
79.35, 99
79.36, 94
79.37, 107
79.38, 106
79.39, 86
79.4, 91
79.41, 91
79.42, 99
79.43, 87
79.44, 100
79.45, 95
79.46, 82
79.47, 102
79.48, 97
79.49, 83
79.5, 89
79.51, 98
79.52, 106
79.53, 99
79.54, 80
79.55, 99
79.56, 106
79.57, 84
79.58, 85
79.59, 89
79.6, 83
79.61, 93
79.62, 97
79.63, 84
79.64, 105
79.65, 75
79.66, 88
79.67, 92
79.68, 103
79.69, 97
79.7, 102
79.71, 93
79.72, 96
79.73, 99
79.74, 102
79.75, 101
79.76, 95
79.77, 95
79.78, 74
79.79, 82
79.8, 97
79.81, 90
79.82, 99
79.83, 87
79.84, 84
79.85, 97
79.86, 84
79.87, 127
79.88, 85
79.89, 95
79.9, 89
79.91, 102
79.92, 93
79.93, 88
79.94, 73
79.95, 102
79.96, 74
79.97, 86
79.98, 99
79.99, 83
80, 96
80.01, 85
80.02, 99
80.03, 80
80.04, 91
80.05, 103
80.06, 87
80.07, 96
80.08, 90
80.09, 98
80.1, 83
80.11, 87
80.12, 88
80.13, 87
80.14, 92
80.15, 105
80.16, 96
80.17, 84
80.18, 88
80.19, 77
80.2, 91
80.21, 84
80.22, 101
80.23, 86
80.24, 107
80.25, 112
80.26, 71
80.27, 112
80.28, 97
80.29, 109
80.3, 86
80.31, 97
80.32, 84
80.33, 102
80.34, 94
80.35, 83
80.36, 98
80.37, 91
80.38, 92
80.39, 93
80.4, 86
80.41, 117
80.42, 104
80.43, 100
80.44, 113
80.45, 85
80.46, 92
80.47, 98
80.48, 85
80.49, 83
80.5, 90
80.51, 93
80.52, 92
80.53, 93
80.54, 98
80.55, 97
80.56, 111
80.57, 91
80.58, 87
80.59, 97
80.6, 87
80.61, 101
80.62, 104
80.63, 103
80.64, 92
80.65, 103
80.66, 91
80.67, 81
80.68, 80
80.69, 99
80.7, 85
80.71, 96
80.72, 97
80.73, 92
80.74, 76
80.75, 88
80.76, 67
80.77, 107
80.78, 89
80.79, 84
80.8, 89
80.81, 99
80.82, 92
80.83, 88
80.84, 113
80.85, 100
80.86, 83
80.87, 91
80.88, 100
80.89, 81
80.9, 81
80.91, 90
80.92, 107
80.93, 109
80.94, 86
80.95, 99
80.96, 106
80.97, 86
80.98, 98
80.99, 89
81, 85
81.01, 95
81.02, 98
81.03, 93
81.04, 113
81.05, 77
81.06, 92
81.07, 93
81.08, 87
81.09, 76
81.1, 90
81.11, 97
81.12, 85
81.13, 71
81.14, 107
81.15, 89
81.16, 72
81.17, 85
81.18, 100
81.19, 81
81.2, 103
81.21, 88
81.22, 102
81.23, 99
81.24, 87
81.25, 105
81.26, 88
81.27, 104
81.28, 117
81.29, 95
81.3, 93
81.31, 71
81.32, 79
81.33, 100
81.34, 92
81.35, 105
81.36, 111
81.37, 93
81.38, 94
81.39, 90
81.4, 90
81.41, 85
81.42, 82
81.43, 94
81.44, 114
81.45, 91
81.46, 77
81.47, 91
81.48, 99
81.49, 97
81.5, 93
81.51, 94
81.52, 101
81.53, 82
81.54, 87
81.55, 84
81.56, 105
81.57, 94
81.58, 85
81.59, 98
81.6, 93
81.61, 101
81.62, 101
81.63, 116
81.64, 110
81.65, 87
81.66, 89
81.67, 97
81.68, 81
81.69, 90
81.7, 97
81.71, 76
81.72, 103
81.73, 92
81.74, 121
81.75, 78
81.76, 116
81.77, 77
81.78, 95
81.79, 81
81.8, 84
81.81, 89
81.82, 89
81.83, 76
81.84, 88
81.85, 85
81.86, 100
81.87, 100
81.88, 112
81.89, 93
81.9, 87
81.91, 95
81.92, 88
81.93, 103
81.94, 92
81.95, 89
81.96, 91
81.97, 96
81.98, 92
81.99, 102
82, 99
82.01, 102
82.02, 87
82.03, 97
82.04, 109
82.05, 125
82.06, 113
82.07, 133
82.08, 150
82.09, 135
82.1, 106
82.11, 121
82.12, 110
82.13, 84
82.14, 113
82.15, 101
82.16, 113
82.17, 87
82.18, 76
82.19, 89
82.2, 115
82.21, 101
82.22, 90
82.23, 95
82.24, 105
82.25, 88
82.26, 94
82.27, 83
82.28, 100
82.29, 112
82.3, 104
82.31, 102
82.32, 114
82.33, 134
82.34, 113
82.35, 115
82.36, 90
82.37, 100
82.38, 96
82.39, 107
82.4, 93
82.41, 109
82.42, 99
82.43, 103
82.44, 78
82.45, 88
82.46, 80
82.47, 75
82.48, 89
82.49, 87
82.5, 86
82.51, 79
82.52, 99
82.53, 91
82.54, 95
82.55, 83
82.56, 95
82.57, 76
82.58, 90
82.59, 98
82.6, 97
82.61, 103
82.62, 104
82.63, 94
82.64, 102
82.65, 96
82.66, 96
82.67, 91
82.68, 100
82.69, 96
82.7, 78
82.71, 93
82.72, 85
82.73, 95
82.74, 87
82.75, 106
82.76, 105
82.77, 92
82.78, 107
82.79, 80
82.8, 89
82.81, 78
82.82, 84
82.83, 102
82.84, 103
82.85, 91
82.86, 96
82.87, 85
82.88, 85
82.89, 80
82.9, 94
82.91, 97
82.92, 111
82.93, 77
82.94, 104
82.95, 79
82.96, 78
82.97, 89
82.98, 103
82.99, 100
83, 99
83.01, 96
83.02, 86
83.03, 88
83.04, 100
83.05, 95
83.06, 84
83.07, 87
83.08, 95
83.09, 96
83.1, 89
83.11, 109
83.12, 95
83.13, 88
83.14, 103
83.15, 86
83.16, 87
83.17, 101
83.18, 99
83.19, 100
83.2, 81
83.21, 76
83.22, 103
83.23, 85
83.24, 111
83.25, 82
83.26, 96
83.27, 89
83.28, 80
83.29, 84
83.3, 82
83.31, 92
83.32, 90
83.33, 98
83.34, 85
83.35, 91
83.36, 84
83.37, 95
83.38, 94
83.39, 115
83.4, 88
83.41, 92
83.42, 89
83.43, 96
83.44, 82
83.45, 81
83.46, 108
83.47, 95
83.48, 96
83.49, 84
83.5, 93
83.51, 98
83.52, 85
83.53, 86
83.54, 94
83.55, 97
83.56, 105
83.57, 85
83.58, 84
83.59, 94
83.6, 99
83.61, 96
83.62, 92
83.63, 90
83.64, 89
83.65, 117
83.66, 97
83.67, 92
83.68, 88
83.69, 89
83.7, 78
83.71, 76
83.72, 92
83.73, 101
83.74, 94
83.75, 93
83.76, 89
83.77, 97
83.78, 75
83.79, 109
83.8, 89
83.81, 107
83.82, 101
83.83, 109
83.84, 80
83.85, 108
83.86, 81
83.87, 90
83.88, 82
83.89, 94
83.9, 107
83.91, 76
83.92, 78
83.93, 82
83.94, 94
83.95, 83
83.96, 90
83.97, 95
83.98, 99
83.99, 86
84, 102
84.01, 85
84.02, 105
84.03, 89
84.04, 81
84.05, 77
84.06, 107
84.07, 104
84.08, 93
84.09, 74
84.1, 99
84.11, 105
84.12, 95
84.13, 102
84.14, 90
84.15, 94
84.16, 95
84.17, 99
84.18, 88
84.19, 84
84.2, 104
84.21, 87
84.22, 96
84.23, 98
84.24, 97
84.25, 89
84.26, 99
84.27, 83
84.28, 86
84.29, 88
84.3, 83
84.31, 83
84.32, 88
84.33, 102
84.34, 100
84.35, 88
84.36, 100
84.37, 74
84.38, 77
84.39, 87
84.4, 101
84.41, 98
84.42, 80
84.43, 98
84.44, 83
84.45, 97
84.46, 77
84.47, 96
84.48, 105
84.49, 109
84.5, 101
84.51, 102
84.52, 82
84.53, 68
84.54, 93
84.55, 97
84.56, 90
84.57, 98
84.58, 100
84.59, 93
84.6, 93
84.61, 98
84.62, 91
84.63, 80
84.64, 88
84.65, 100
84.66, 82
84.67, 88
84.68, 79
84.69, 106
84.7, 80
84.71, 110
84.72, 92
84.73, 109
84.74, 93
84.75, 81
84.76, 87
84.77, 83
84.78, 81
84.79, 111
84.8, 96
84.81, 80
84.82, 91
84.83, 72
84.84, 90
84.85, 100
84.86, 95
84.87, 109
84.88, 101
84.89, 103
84.9, 83
84.91, 87
84.92, 100
84.93, 68
84.94, 98
84.95, 107
84.96, 96
84.97, 98
84.98, 114
84.99, 93
85, 90
85.01, 99
85.02, 86
85.03, 102
85.04, 92
85.05, 94
85.06, 90
85.07, 96
85.08, 106
85.09, 89
85.1, 94
85.11, 104
85.12, 110
85.13, 100
85.14, 97
85.15, 111
85.16, 93
85.17, 104
85.18, 98
85.19, 101
85.2, 95
85.21, 108
85.22, 95
85.23, 97
85.24, 87
85.25, 82
85.26, 91
85.27, 114
85.28, 95
85.29, 82
85.3, 116
85.31, 103
85.32, 98
85.33, 82
85.34, 112
85.35, 74
85.36, 91
85.37, 92
85.38, 93
85.39, 87
85.4, 99
85.41, 90
85.42, 115
85.43, 103
85.44, 105
85.45, 89
85.46, 94
85.47, 85
85.48, 103
85.49, 110
85.5, 87
85.51, 90
85.52, 91
85.53, 96
85.54, 96
85.55, 96
85.56, 98
85.57, 100
85.58, 90
85.59, 101
85.6, 90
85.61, 96
85.62, 99
85.63, 84
85.64, 97
85.65, 88
85.66, 90
85.67, 89
85.68, 86
85.69, 83
85.7, 91
85.71, 72
85.72, 73
85.73, 98
85.74, 84
85.75, 72
85.76, 75
85.77, 100
85.78, 88
85.79, 92
85.8, 78
85.81, 89
85.82, 95
85.83, 104
85.84, 92
85.85, 83
85.86, 93
85.87, 88
85.88, 99
85.89, 96
85.9, 94
85.91, 96
85.92, 99
85.93, 91
85.94, 96
85.95, 88
85.96, 84
85.97, 96
85.98, 82
85.99, 91
86, 84
86.01, 85
86.02, 80
86.03, 102
86.04, 79
86.05, 92
86.06, 88
86.07, 101
86.08, 91
86.09, 78
86.1, 97
86.11, 91
86.12, 98
86.13, 94
86.14, 86
86.15, 88
86.16, 90
86.17, 94
86.18, 103
86.19, 87
86.2, 91
86.21, 95
86.22, 109
86.23, 84
86.24, 106
86.25, 93
86.26, 92
86.27, 93
86.28, 74
86.29, 82
86.3, 85
86.31, 84
86.32, 100
86.33, 86
86.34, 84
86.35, 88
86.36, 103
86.37, 88
86.38, 91
86.39, 87
86.4, 91
86.41, 89
86.42, 96
86.43, 112
86.44, 113
86.45, 92
86.46, 102
86.47, 84
86.48, 80
86.49, 97
86.5, 94
86.51, 105
86.52, 83
86.53, 99
86.54, 84
86.55, 102
86.56, 89
86.57, 98
86.58, 80
86.59, 91
86.6, 97
86.61, 84
86.62, 77
86.63, 86
86.64, 76
86.65, 94
86.66, 109
86.67, 89
86.68, 84
86.69, 102
86.7, 78
86.71, 95
86.72, 121
86.73, 96
86.74, 86
86.75, 101
86.76, 83
86.77, 82
86.78, 92
86.79, 101
86.8, 95
86.81, 102
86.82, 93
86.83, 80
86.84, 104
86.85, 81
86.86, 107
86.87, 88
86.88, 80
86.89, 89
86.9, 89
86.91, 92
86.92, 78
86.93, 97
86.94, 95
86.95, 96
86.96, 73
86.97, 89
86.98, 87
86.99, 77
87, 82
87.01, 105
87.02, 95
87.03, 95
87.04, 105
87.05, 85
87.06, 103
87.07, 96
87.08, 92
87.09, 90
87.1, 72
87.11, 107
87.12, 87
87.13, 95
87.14, 91
87.15, 99
87.16, 83
87.17, 111
87.18, 94
87.19, 90
87.2, 93
87.21, 78
87.22, 90
87.23, 87
87.24, 80
87.25, 82
87.26, 82
87.27, 87
87.28, 102
87.29, 73
87.3, 85
87.31, 64
87.32, 92
87.33, 103
87.34, 93
87.35, 92
87.36, 93
87.37, 79
87.38, 82
87.39, 95
87.4, 91
87.41, 110
87.42, 89
87.43, 93
87.44, 93
87.45, 90
87.46, 92
87.47, 96
87.48, 102
87.49, 90
87.5, 94
87.51, 72
87.52, 91
87.53, 90
87.54, 92
87.55, 91
87.56, 83
87.57, 106
87.58, 86
87.59, 111
87.6, 79
87.61, 63
87.62, 94
87.63, 97
87.64, 89
87.65, 77
87.66, 105
87.67, 86
87.68, 101
87.69, 87
87.7, 98
87.71, 72
87.72, 89
87.73, 91
87.74, 97
87.75, 89
87.76, 86
87.77, 100
87.78, 86
87.79, 99
87.8, 89
87.81, 82
87.82, 91
87.83, 100
87.84, 89
87.85, 80
87.86, 74
87.87, 92
87.88, 100
87.89, 91
87.9, 102
87.91, 88
87.92, 92
87.93, 108
87.94, 91
87.95, 77
87.96, 96
87.97, 76
87.98, 88
87.99, 96
88, 81
88.01, 102
88.02, 95
88.03, 92
88.04, 88
88.05, 78
88.06, 84
88.07, 98
88.08, 75
88.09, 89
88.1, 89
88.11, 98
88.12, 97
88.13, 82
88.14, 81
88.15, 90
88.16, 84
88.17, 75
88.18, 93
88.19, 87
88.2, 93
88.21, 89
88.22, 98
88.23, 95
88.24, 85
88.25, 94
88.26, 92
88.27, 99
88.28, 98
88.29, 94
88.3, 106
88.31, 82
88.32, 95
88.33, 100
88.34, 85
88.35, 91
88.36, 70
88.37, 96
88.38, 87
88.39, 90
88.4, 87
88.41, 91
88.42, 92
88.43, 87
88.44, 86
88.45, 92
88.46, 99
88.47, 83
88.48, 83
88.49, 96
88.5, 63
88.51, 90
88.52, 83
88.53, 89
88.54, 72
88.55, 92
88.56, 81
88.57, 87
88.58, 69
88.59, 109
88.6, 93
88.61, 90
88.62, 76
88.63, 75
88.64, 92
88.65, 93
88.66, 75
88.67, 93
88.68, 83
88.69, 114
88.7, 96
88.71, 78
88.72, 94
88.73, 87
88.74, 90
88.75, 91
88.76, 104
88.77, 98
88.78, 84
88.79, 78
88.8, 92
88.81, 95
88.82, 112
88.83, 85
88.84, 95
88.85, 86
88.86, 78
88.87, 94
88.88, 88
88.89, 95
88.9, 89
88.91, 86
88.92, 85
88.93, 95
88.94, 87
88.95, 100
88.96, 86
88.97, 93
88.98, 97
88.99, 94
89, 86
89.01, 98
89.02, 81
89.03, 115
89.04, 89
89.05, 92
89.06, 86
89.07, 91
89.08, 75
89.09, 103
89.1, 89
89.11, 100
89.12, 90
89.13, 98
89.14, 100
89.15, 94
89.16, 96
89.17, 92
89.18, 83
89.19, 101
89.2, 92
89.21, 98
89.22, 105
89.23, 93
89.24, 89
89.25, 90
89.26, 102
89.27, 95
89.28, 77
89.29, 90
89.3, 109
89.31, 98
89.32, 79
89.33, 88
89.34, 95
89.35, 79
89.36, 97
89.37, 88
89.38, 98
89.39, 102
89.4, 94
89.41, 107
89.42, 68
89.43, 79
89.44, 94
89.45, 101
89.46, 101
89.47, 91
89.48, 77
89.49, 95
89.5, 89
89.51, 68
89.52, 88
89.53, 78
89.54, 85
89.55, 93
89.56, 96
89.57, 99
89.58, 84
89.59, 92
89.6, 90
89.61, 88
89.62, 98
89.63, 96
89.64, 69
89.65, 90
89.66, 94
89.67, 86
89.68, 96
89.69, 97
89.7, 83
89.71, 98
89.72, 76
89.73, 84
89.74, 100
89.75, 88
89.76, 87
89.77, 90
89.78, 93
89.79, 104
89.8, 104
89.81, 81
89.82, 85
89.83, 112
89.84, 90
89.85, 94
89.86, 76
89.87, 87
89.88, 95
89.89, 88
89.9, 92
89.91, 93
89.92, 80
89.93, 89
89.94, 80
89.95, 79
89.96, 92
89.97, 76
89.98, 86
89.99, 96
90, 91
##END=



